57.42448267,4647
60.29131328,4924
63.15612404,4676
66.01891664,4688
68.87969276,4665
71.73845411,5220
74.59520236,4767
77.44993921,4572
80.30266633,4694
83.15338541,5602
86.00209813,4658
88.84880617,4762
91.6935112,4627
94.53621489,4658
97.37691893,4557
100.215625,4573
103.0523347,4671
105.8870498,4796
108.7197719,4620
111.5505026,4787
114.3792437,4526
117.2059968,4586
120.0307636,4497
122.8535457,4816
125.6743447,4697
128.4931623,4668
131.3100002,4493
134.1248601,4763
136.9377435,4524
139.7486521,4927
142.5575875,4588
145.3645515,4423
148.1695455,4586
150.9725714,4469
153.7736306,4623
156.5727249,4454
159.3698559,4420
162.1650252,4550
164.9582344,4557
167.7494851,4513
170.5387791,4572
173.3261178,4584
176.111503,4642
178.8949363,4585
181.6764192,4509
184.4559533,4500
187.2335404,4438
190.009182,4646
192.7828797,4620
195.5546352,4566
198.32445,4348
201.0923257,4719
203.8582639,4352
206.6222664,4333
209.3843345,4411
212.1444701,4400
214.9026745,4499
217.6589495,4665
220.4132966,4499
223.1657175,4430
225.9162137,4386
228.6647868,4488
231.4114383,4410
234.15617,4504
236.8989832,4373
239.6398798,4481
242.3788611,4464
245.1159289,4300
247.8510846,4480
250.5843298,4412
253.3156662,4723
256.0450953,4939
258.7726186,4327
261.4982377,4501
264.2219542,4442
266.9437697,4671
269.6636857,4552
272.3817038,4585
275.0978255,4365
277.8120524,4540
280.524386,4446
283.234828,4524
285.9433797,4722
288.6500429,4391
291.3548191,4582
294.0577097,4399
296.7587164,4270
299.4578407,4265
302.1550841,4279
304.8504482,4444
307.5439344,4485
310.2355445,4527
312.9252798,4342
315.6131419,4425
318.2991323,4416
320.9832527,4546
323.6655044,4423
326.3458891,4771
329.0244082,4650
331.7010633,4461
334.3758559,4350
337.0487875,4501
339.7198596,4215
342.3890738,4444
345.0564316,4531
347.7219345,4441
350.3855839,4447
353.0473815,4396
355.7073287,4460
358.365427,4408
361.0216779,4345
363.676083,4497
366.3286437,4746
368.9793615,4242
371.6282379,4502
374.2752745,4413
376.9204727,4625
379.5638341,4413
382.20536,4453
384.8450521,4578
387.4829117,4415
390.1189404,4673
392.7531397,4494
395.385511,4412
398.0160559,4703
400.6447758,4609
403.2716721,4423
405.8967465,4492
408.5200003,4580
411.141435,4624
413.7610521,4313
416.3788531,4302
418.9948394,4260
421.6090125,4451
424.2213739,4702
426.831925,4370
429.4406673,4368
432.0476023,4364
434.6527314,4526
437.2560561,4250
439.8575778,4389
442.4572981,4418
445.0552182,4336
447.6513398,4560
450.2456643,4513
452.838193,4333
455.4289275,4358
458.0178692,4545
460.6050195,4514
463.1903799,4539
465.7739518,4288
468.3557368,4460
470.9357361,4453
473.5139512,4390
476.0903837,4239
478.6650348,4298
481.2379061,4236
483.808999,4262
486.3783149,4462
488.9458552,4263
491.5116214,4810
494.0756149,4564
496.637837,4326
499.1982893,4320
501.7569732,4441
504.31389,4611
506.8690412,4588
509.4224283,4496
511.9740525,4407
514.5239154,4396
517.0720183,4464
519.6183627,4319
522.1629499,4433
524.7057814,4524
527.2468585,4286
529.7861828,4220
532.3237555,4345
534.8595781,4388
537.3936519,4698
539.9259785,4544
542.4565591,4501
544.9853952,4607
547.5124881,4720
550.0378393,4341
552.5614502,4513
555.0833221,4550
557.6034563,4388
560.1218544,4435
562.6385177,4562
565.1534476,4325
567.6666454,4518
570.1781125,4314
572.6878504,4472
575.1958603,4545
577.7021437,4846
580.206702,4512
582.7095365,4397
585.2106485,4439
587.7100395,4477
590.2077108,4337
592.7036638,4254
595.1978999,4327
597.6904204,4505
600.1812266,4602
602.67032,4460
605.1577019,4652
607.6433737,4397
610.1273367,4524
612.6095922,4384
615.0901417,4432
617.5689865,4580
620.0461278,4380
622.5215672,4403
624.9953059,4427
627.4673453,4288
629.9376867,4461
632.4063314,4276
634.8732809,4359
637.3385364,4636
639.8020993,4713
642.2639709,4276
644.7241525,4286
647.1826456,4235
649.6394514,4507
652.0945713,4252
654.5480066,4496
656.9997586,4334
659.4498286,4392
661.8982181,4589
664.3449282,4218
666.7899604,4326
669.2333159,4497
671.6749961,4421
674.1150023,5007
676.5533358,4188
678.9899979,4265
681.42499,4694
683.8583134,4335
686.2899693,4453
688.7199592,4369
691.1482842,4842
693.5749457,4288
695.999945,4339
698.4232835,4213
700.8449624,4680
703.264983,4273
705.6833467,4199
708.1000547,5105
710.5151083,4381
712.9285088,4362
715.3402576,4466
717.7503559,4300
720.158805,4356
722.5656063,4458
724.9707609,4585
727.3742702,4447
729.7761355,4427
732.1763581,4362
734.5749392,4435
736.9718802,4447
739.3671822,4425
741.7608467,4273
744.1528749,4408
746.543268,4363
748.9320274,4493
751.3191543,4290
753.70465,4337
756.0885158,4340
758.4707529,4361
760.8513626,4689
763.2303462,4286
765.6077049,4277
767.98344,4609
770.3575529,4276
772.7300447,4379
775.1009167,4425
777.4701702,4540
779.8378064,4207
782.2038266,4354
784.568232,4347
786.931024,4318
789.2922037,4717
791.6517725,4309
794.0097315,4351
796.366082,4332
798.7208253,4592
801.0739627,4374
803.4254953,4508
805.7754244,4250
808.1237513,4261
810.4704772,4307
812.8156033,4354
815.159131,4415
817.5010613,4429
819.8413957,4676
822.1801352,4350
824.5172812,4255
826.8528349,4395
829.1867974,4369
831.5191702,4325
833.8499542,4348
836.1791509,4462
838.5067615,4513
840.832787,4461
843.1572289,4467
845.4800883,4380
847.8013664,4469
850.1210645,4317
852.4391837,4355
854.7557254,4375
857.0706907,4187
859.3840808,4304
861.6958969,4387
864.0061403,4199
866.3148122,4221
868.6219138,4454
870.9274462,4299
873.2314108,4328
875.5338087,4236
877.8346411,4353
880.1339093,4459
882.4316144,4416
884.7277576,4385
887.0223402,4427
889.3153633,4494
891.6068282,4478
893.896736,4318
896.1850879,4170
898.4718852,4472
900.757129,4225
903.0408205,4284
905.3229609,4334
907.6035515,4311
909.8825933,4409
912.1600876,4533
914.4360356,4229
916.7104385,4274
918.9832974,4181
921.2546135,4263
923.524388,4517
925.7926222,4350
928.059317,4386
930.3244739,4511
932.5880939,4598
934.8501782,4959
937.1107279,4232
939.3697443,4160
941.6272286,4439
943.8831818,4297
946.1376052,4786
948.3905,4467
950.6418672,4336
952.8917082,4391
955.1400239,4499
957.3868157,4241
959.6320847,4315
961.875832,4209
964.1180587,4254
966.3587662,4169
968.5979554,4556
970.8356276,4437
973.0717839,4408
975.3064255,4393
977.5395536,4488
979.7711692,4322
982.0012736,4358
984.2298678,4325
986.4569531,4314
988.6825306,4342
990.9066014,4256
993.1291667,4241
995.3502276,4469
997.5697853,4361
999.7878409,4257
1002.004396,4251
1004.21945,4185
1006.433007,4424
1008.645065,4291
1010.855627,4355
1013.064694,4394
1015.272267,4227
1017.478347,4388
1019.682935,4519
1021.886032,4554
1024.08764,4455
1026.287759,4167
1028.486391,4297
1030.683537,4368
1032.879197,4314
1035.073374,4333
1037.266068,4333
1039.45728,4523
1041.647011,4237
1043.835263,4158
1046.022036,4536
1048.207333,4278
1050.391153,4261
1052.573498,4314
1054.754369,4503
1056.933768,4397
1059.111694,4353
1061.288151,4350
1063.463137,4258
1065.636656,4419
1067.808707,4267
1069.979292,4437
1072.148412,4329
1074.316068,4478
1076.482261,4367
1078.646992,4288
1080.810263,4314
1082.972075,4492
1085.132427,4268
1087.291323,4466
1089.448762,4394
1091.604746,4287
1093.759277,4392
1095.912354,4306
1098.063979,4154
1100.214154,4319
1102.362878,4460
1104.510155,4336
1106.655983,4366
1108.800366,4545
1110.943303,4358
1113.084796,4222
1115.224845,4194
1117.363453,4348
1119.500619,4268
1121.636346,4364
1123.770633,4423
1125.903483,4326
1128.034896,4237
1130.164874,4463
1132.293417,4323
1134.420527,4577
1136.546204,4309
1138.67045,4379
1140.793265,4129
1142.914652,4207
1145.03461,4252
1147.153141,4507
1149.270246,4339
1151.385927,4275
1153.500183,4426
1155.613017,4534
1157.724429,4440
1159.83442,4472
1161.942992,4412
1164.050145,4532
1166.15588,4553
1168.260199,4508
1170.363103,4827
1172.464592,4474
1174.564668,4239
1176.663332,4547
1178.760585,4474
1180.856427,4413
1182.950861,4329
1185.043886,4380
1187.135505,4705
1189.225717,4347
1191.314525,4384
1193.401928,4232
1195.487929,4464
1197.572528,4349
1199.655727,4422
1201.737526,4345
1203.817926,4177
1205.896928,4336
1207.974534,4354
1210.050744,4320
1212.12556,4557
1214.198982,4425
1216.271012,4608
1218.341651,4380
1220.410899,4293
1222.478758,4298
1224.545228,4266
1226.610311,4205
1228.674008,4319
1230.736319,4422
1232.797247,4351
1234.856791,4402
1236.914953,4399
1238.971734,4533
1241.027134,4533
1243.081156,4386
1245.1338,4272
1247.185066,4242
1249.234956,4359
1251.283471,4370
1253.330613,4481
1255.376381,4223
1257.420777,4237
1259.463802,4554
1261.505458,4408
1263.545744,4458
1265.584662,4455
1267.622213,4646
1269.658399,4310
1271.693219,4504
1273.726675,4425
1275.758769,4501
1277.7895,4352
1279.818871,4258
1281.846881,4129
1283.873533,4418
1285.898827,4267
1287.922764,4303
1289.945344,4146
1291.96657,4218
1293.986442,4380
1296.004961,4382
1298.022128,4507
1300.037944,4573
1302.05241,4618
1304.065527,4735
1306.077296,4388
1308.087718,4773
1310.096794,4384
1312.104524,4359
1314.110911,4575
1316.115955,4423
1318.119656,4115
1320.122017,4226
1322.123037,4316
1324.122718,4417
1326.121061,4225
1328.118067,4304
1330.113736,4473
1332.10807,4469
1334.10107,4360
1336.092737,4428
1338.083071,4572
1340.072074,4237
1342.059746,4396
1344.046089,4349
1346.031104,4341
1348.014791,4416
1349.997152,4239
1351.978187,4146
1353.957897,4304
1355.936284,4216
1357.913348,4228
1359.889091,4386
1361.863513,4187
1363.836615,4328
1365.808398,4283
1367.778863,4569
1369.748012,4197
1371.715844,4222
1373.682362,4572
1375.647565,4176
1377.611456,4152
1379.574034,4305
1381.535301,4518
1383.495258,4332
1385.453906,4290
1387.411245,4681
1389.367277,4257
1391.322003,4308
1393.275423,4274
1395.227538,4158
1397.17835,4255
1399.12786,4167
1401.076067,4238
1403.022974,4362
1404.968581,4340
1406.912889,4334
1408.8559,4315
1410.797613,4447
1412.73803,4443
1414.677153,4395
1416.61498,4342
1418.551515,4218
1420.486758,4304
1422.420709,4635
1424.353369,4260
1426.28474,4344
1428.214823,4352
1430.143618,4295
1432.071126,4312
1433.997348,4330
1435.922286,4342
1437.845939,4270
1439.76831,4289
1441.689398,4259
1443.609205,4130
1445.527732,4456
1447.44498,4389
1449.360949,4191
1451.275641,4411
1453.189056,4204
1455.101196,4234
1457.012061,4224
1458.921652,4296
1460.82997,4191
1462.737016,4326
1464.642791,4202
1466.547296,4172
1468.450531,4319
1470.352499,4176
1472.253199,4640
1474.152632,4319
1476.0508,4365
1477.947703,4379
1479.843342,4295
1481.737719,4369
1483.630833,4163
1485.522686,4137
1487.413279,4288
1489.302613,4191
1491.190689,4320
1493.077507,4131
1494.963068,4123
1496.847374,4348
1498.730425,4151
1500.612222,4282
1502.492767,4127
1504.372059,4384
1506.250099,4133
1508.12689,4239
1510.002431,4285
1511.876724,4273
1513.749769,4373
1515.621567,4247
1517.49212,4210
1519.361427,4419
1521.229491,4233
1523.096311,4322
1524.961889,4186
1526.826226,4350
1528.689322,4222
1530.551178,4151
1532.411796,4300
1534.271176,4230
1536.129319,4190
1537.986225,4262
1539.841897,4266
1541.696334,4282
1543.549538,4132
1545.401509,4168
1547.252248,4370
1549.101756,4114
1550.950035,4196
1552.797084,4094
1554.642905,4429
1556.487499,4439
1558.330867,4180
1560.173008,4099
1562.013925,4274
1563.853618,4371
1565.692088,4330
1567.529336,4037
1569.365363,4274
1571.200169,4265
1573.033756,4362
1574.866124,4208
1576.697274,4233
1578.527207,4352
1580.355925,4452
1582.183427,4095
1584.009714,4368
1585.834788,4765
1587.658649,4577
1589.481299,4365
1591.302738,4522
1593.122966,4287
1594.941985,4381
1596.759796,4163
1598.5764,4126
1600.391796,4179
1602.205987,4312
1604.018973,4235
1605.830755,4274
1607.641333,4377
1609.450709,4235
1611.258884,4272
1613.065858,4396
1614.871632,4356
1616.676206,4147
1618.479583,4171
1620.281762,4328
1622.082745,4118
1623.882532,4087
1625.681124,4217
1627.478523,4362
1629.274728,4316
1631.06974,4469
1632.863562,4292
1634.656192,4577
1636.447633,4185
1638.237885,4354
1640.026949,4282
1641.814826,4081
1643.601516,4302
1645.38702,4224
1647.17134,4190
1648.954475,4360
1650.736428,4273
1652.517198,4261
1654.296787,4262
1656.075195,4247
1657.852423,4128
1659.628472,4154
1661.403343,4099
1663.177037,4339
1664.949554,4188
1666.720896,4142
1668.491062,4283
1670.260055,4169
1672.027874,4179
1673.794521,4265
1675.559997,4167
1677.324301,4216
1679.087436,4142
1680.849401,4114
1682.610198,4204
1684.369828,4203
1686.128291,4114
1687.885588,4306
1689.64172,4248
1691.396687,4219
1693.150492,4285
1694.903133,4219
1696.654613,4278
1698.404932,4302
1700.15409,4325
1701.902089,4102
1703.64893,4492
1705.394613,4150
1707.139139,4340
1708.882508,4223
1710.624722,4269
1712.365782,4346
1714.105688,4115
1715.844441,4149
1717.582042,4198
1719.318491,4388
1721.05379,4183
1722.787939,4333
1724.520939,4248
1726.252791,4405
1727.983496,4444
1729.713054,4411
1731.441466,4254
1733.168733,4215
1734.894856,4257
1736.619836,4438
1738.343673,4342
1740.066368,4242
1741.787923,4164
1743.508337,4113
1745.227611,4218
1746.945747,4226
1748.662745,4249
1750.378606,4156
1752.093331,4248
1753.80692,4551
1755.519374,4248
1757.230695,4422
1758.940882,4339
1760.649937,4269
1762.35786,4185
1764.064653,4270
1765.770315,4181
1767.474849,4206
1769.178253,4138
1770.880531,4202
1772.581681,4070
1774.281705,4237
1775.980603,4156
1777.678378,4136
1779.375028,4328
1781.070555,4209
1782.76496,4167
1784.458244,4390
1786.150406,4195
1787.841449,4243
1789.531373,4263
1791.220178,4135
1792.907866,4150
1794.594437,4199
1796.279891,4469
1797.964231,4340
1799.647455,4245
1801.329566,4252
1803.010564,4214
1804.69045,4248
1806.369224,4656
1808.046887,4094
1809.723441,4253
1811.398885,4260
1813.073221,4262
1814.746449,4275
1816.41857,4128
1818.089585,4141
1819.759494,4111
1821.428299,4242
1823.096,4180
1824.762598,4132
1826.428093,4181
1828.092487,4121
1829.75578,4212
1831.417972,4213
1833.079065,4242
1834.73906,4544
1836.397957,4248
1838.055757,4153
1839.71246,4278
1841.368067,4197
1843.02258,4321
1844.675999,4179
1846.328324,4253
1847.979556,4154
1849.629697,4118
1851.278747,4239
1852.926706,4096
1854.573575,4182
1856.219356,4149
1857.864048,4221
1859.507653,4222
1861.150171,4153
1862.791603,4360
1864.43195,4124
1866.071213,4138
1867.709391,4326
1869.346487,4298
1870.982501,4531
1872.617433,4266
1874.251284,4048
1875.884055,4087
1877.515747,4274
1879.14636,4089
1880.775895,4216
1882.404353,4075
1884.031735,4225
1885.658041,4115
1887.283273,4135
1888.90743,4165
1890.530513,4261
1892.152524,4177
1893.773463,4254
1895.39333,4319
1897.012127,4163
1898.629854,4093
1900.246512,4453
1901.862101,4232
1903.476623,4230
1905.090078,4150
1906.702467,4334
1908.31379,4118
1909.924048,4187
1911.533243,4113
1913.141374,4168
1914.748442,4287
1916.354448,4359
1917.959394,4271
1919.563278,4449
1921.166104,4216
1922.767869,4345
1924.368577,4316
1925.968227,4205
1927.56682,4264
1929.164357,4387
1930.760839,4101
1932.356266,4151
1933.950638,4179
1935.543958,4253
1937.136224,4554
1938.727439,4093
1940.317603,4343
1941.906716,4110
1943.494779,4369
1945.081794,4179
1946.667759,4378
1948.252678,4118
1949.836549,4195
1951.419374,4131
1953.001153,4231
1954.581888,4190
1956.161578,4056
1957.740225,4256
1959.317829,4229
1960.894391,4386
1962.469912,4061
1964.044392,4144
1965.617832,4107
1967.190233,4116
1968.761596,4359
1970.33192,4170
1971.901207,4252
1973.469458,4123
1975.036673,4097
1976.602853,4166
1978.167999,4152
1979.732111,4121
1981.29519,4116
1982.857236,4141
1984.418251,4151
1985.978235,4432
1987.537189,4089
1989.095113,4091
1990.652009,4158
1992.207876,4163
1993.762716,4619
1995.316528,4300
1996.869315,4230
1998.421077,4184
1999.971813,4156
2001.521526,4264
2003.070215,4251
2004.617882,4219
2006.164526,4274
2007.710149,4173
2009.254752,4076
2010.798334,4143
2012.340898,4169
2013.882442,4079
2015.422969,4291
2016.962479,4404
2018.500972,4231
2020.038449,4303
2021.57491,4165
2023.110358,4134
2024.644791,4206
2026.178211,4166
2027.710619,4214
2029.242015,4112
2030.7724,4235
2032.301774,4192
2033.830138,4065
2035.357493,4193
2036.88384,4084
2038.409179,4169
2039.933511,4169
2041.456836,4271
2042.979156,4220
2044.50047,4243
2046.02078,4236
2047.540086,4133
2049.058389,4118
2050.575689,4289
2052.091988,4040
2053.607285,4230
2055.121582,4177
2056.63488,4317
2058.147178,4038
2059.658477,4157
2061.168779,4157
2062.678083,4138
2064.186391,4184
2065.693703,4333
2067.20002,4311
2068.705343,4133
2070.209671,4240
2071.713007,4211
2073.215349,4157
2074.7167,4166
2076.21706,4224
2077.716429,4144
2079.214808,4170
2080.712197,4155
2082.208599,4279
2083.704012,4064
2085.198437,4138
2086.691876,4163
2088.18433,4099
2089.675797,4194
2091.16628,4346
2092.655779,4228
2094.144294,4259
2095.631827,4299
2097.118377,4330
2098.603946,4139
2100.088534,4407
2101.572142,4132
2103.054771,4376
2104.53642,4224
2106.017091,4222
2107.496785,4213
2108.975501,4217
2110.453242,4139
2111.930006,4304
2113.405795,4157
2114.88061,4251
2116.354452,4213
2117.82732,4176
2119.299215,4247
2120.770139,4254
2122.240092,4143
2123.709074,4201
2125.177086,4226
2126.644128,4277
2128.110202,4295
2129.575308,4053
2131.039447,4069
2132.502618,4105
2133.964824,4193
2135.426064,4380
2136.886339,4263
2138.34565,4087
2139.803998,4142
2141.261382,4174
2142.717804,4084
2144.173264,4186
2145.627763,4286
2147.081302,4170
2148.533881,4254
2149.985501,4220
2151.436162,4164
2152.885865,4082
2154.334611,4195
2155.7824,4174
2157.229233,4215
2158.67511,4053
2160.120033,4149
2161.564001,4072
2163.007016,4212
2164.449078,4238
2165.890188,4244
2167.330346,4160
2168.769552,4234
2170.207809,4255
2171.645115,4290
2173.081472,4290
2174.51688,4113
2175.951341,4327
2177.384854,4120
2178.81742,4224
2180.24904,4148
2181.679715,4321
2183.109445,4296
2184.53823,4213
2185.966071,4394
2187.39297,4228
2188.818926,4616
2190.24394,4166
2191.668013,4247
2193.091145,4324
2194.513337,4268
2195.93459,4088
2197.354904,4188
2198.77428,4081
2200.192718,4241
2201.610219,4185
2203.026784,5052
2204.442413,4266
2205.857107,4524
2207.270866,4153
2208.683691,4136
2210.095583,4082
2211.506543,4131
2212.91657,4277
2214.325665,4147
2215.73383,4075
2217.141064,4237
2218.547369,4090
2219.952744,4285
2221.357191,4259
2222.76071,4138
2224.163301,4212
2225.564966,4045
2226.965705,4231
2228.365518,4158
2229.764406,4342
2231.16237,4240
2232.55941,4198
2233.955527,4414
2235.350722,4148
2236.744994,4159
2238.138345,4066
2239.530775,4137
2240.922286,4315
2242.312876,4222
2243.702548,4127
2245.091301,4201
2246.479136,4134
2247.866054,4257
2249.252056,4127
2250.637142,4102
2252.021312,4125
2253.404567,4174
2254.786908,4371
2256.168335,4103
2257.548849,4073
2258.928451,4258
2260.30714,4171
2261.684919,4143
2263.061786,4265
2264.437744,4293
2265.812792,4241
2267.186931,4118
2268.560161,4262
2269.932484,4096
2271.303899,4161
2272.674408,4241
2274.04401,4236
2275.412708,4199
2276.7805,4111
2278.147388,4185
2279.513372,4095
2280.878453,4412
2282.242631,4289
2283.605907,4118
2284.968282,4452
2286.329756,4271
2287.69033,4090
2289.050004,4294
2290.408779,4145
2291.766655,4191
2293.123633,4124
2294.479714,4250
2295.834898,4479
2297.189186,4139
2298.542578,4167
2299.895075,4160
2301.246677,4067
2302.597386,4113
2303.9472,4189
2305.296123,4070
2306.644152,4101
2307.991291,4087
2309.337538,4297
2310.682894,4178
2312.02736,4152
2313.370937,4211
2314.713626,4174
2316.055425,4165
2317.396337,4068
2318.736362,4336
2320.075501,4223
2321.413753,4321
2322.75112,4083
2324.087602,4268
2325.423199,4210
2326.757913,4294
2328.091744,4252
2329.424692,4185
2330.756757,4161
2332.087942,4099
2333.418245,4180
2334.747668,4121
2336.076211,4205
2337.403874,4239
2338.730659,4318
2340.056566,4223
2341.381595,4070
2342.705747,4137
2344.029023,4143
2345.351423,4166
2346.672947,4344
2347.993596,4251
2349.313371,4154
2350.632273,4296
2351.950301,4171
2353.267456,4256
2354.58374,4420
2355.899152,4193
2357.213693,4164
2358.527363,4448
2359.840164,4151
2361.152095,4338
2362.463158,4318
2363.773352,4125
2365.082679,4172
2366.391138,4152
2367.698731,4191
2369.005458,4051
2370.31132,4138
2371.616316,4163
2372.920448,4197
2374.223717,4149
2375.526122,4104
2376.827664,4287
2378.128344,4152
2379.428163,4202
2380.72712,4830
2382.025217,4230
2383.322453,4166
2384.61883,4404
2385.914349,4178
2387.209008,4117
2388.50281,4225
2389.795755,4256
2391.087843,4392
2392.379075,4113
2393.669451,4212
2394.958971,4265
2396.247637,4333
2397.535449,4211
2398.822408,4360
2400.108513,4197
2401.393766,4146
2402.678167,4218
2403.961717,4233
2405.244416,4259
2406.526264,4089
2407.807263,4206
2409.087412,4293
2410.366713,4252
2411.645165,4329
2412.92277,4325
2414.199527,4177
2415.475438,4220
2416.750503,4173
2418.024723,4125
2419.298097,4198
2420.570627,4186
2421.842313,4417
2423.113155,4108
2424.383155,4076
2425.652312,4165
2426.920627,4100
2428.188101,4213
2429.454735,4070
2430.720528,4437
2431.985481,4494
2433.249595,4121
2434.51287,4321
2435.775307,4199
2437.036907,4199
2438.297669,4207
2439.557595,4439
2440.816685,4093
2442.074939,4295
2443.332358,4235
2444.588943,4296
2445.844694,4304
2447.099611,4320
2448.353695,4236
2449.606947,4410
2450.859367,4140
2452.110956,4158
2453.361714,4177
2454.611641,4744
2455.860739,4413
2457.109007,4165
2458.356446,4273
2459.603058,4222
2460.848841,4204
2462.093797,4071
2463.337927,4142
2464.58123,4226
2465.823708,4110
2467.06536,4202
2468.306188,4210
2469.546191,4325
2470.785371,4089
2472.023728,4257
2473.261262,4205
2474.497974,4150
2475.733864,4230
2476.968934,4177
2478.203183,4157
2479.436611,4243
2480.66922,4333
2481.901011,4302
2483.131982,4329
2484.362136,4172
2485.591472,4207
2486.81999,4267
2488.047693,4123
2489.274579,4272
2490.50065,4124
2491.725906,4358
2492.950348,4249
2494.173975,4315
2495.396789,4191
2496.61879,4251
2497.839979,4302
2499.060355,4148
2500.27992,4207
2501.498675,4190
2502.716618,4262
2503.933752,4260
2505.150076,4209
2506.365592,4174
2507.580298,4218
2508.794197,4196
2510.007289,4069
2511.219573,4123
2512.431051,4113
2513.641723,4122
2514.85159,4206
2516.060652,4116
2517.268909,4039
2518.476362,4201
2519.683012,4248
2520.888858,4228
2522.093902,4275
2523.298145,4256
2524.501585,4200
2525.704225,4307
2526.906064,4278
2528.107104,4073
2529.307343,4174
2530.506784,4189
2531.705426,4122
2532.90327,4537
2534.100317,4127
2535.296566,4754
2536.492019,4115
2537.686676,4260
2538.880537,4521
2540.073603,4163
2541.265875,4158
2542.457352,4237
2543.648036,4127
2544.837927,4118
2546.027025,4087
2547.21533,4255
2548.402845,4074
2549.589567,4185
2550.7755,4095
2551.960642,4169
2553.144994,4140
2554.328557,4109
2555.511331,4075
2556.693317,4302
2557.874515,4130
2559.054926,4214
2560.23455,4309
2561.413387,4294
2562.591439,4343
2563.768705,4082
2564.945187,4144
2566.120884,4243
2567.295797,4408
2568.469926,4092
2569.643273,4211
2570.815837,4389
2571.987619,4259
2573.158619,4173
2574.328839,4192
2575.498278,4232
2576.666936,4249
2577.834815,4273
2579.001915,4259
2580.168236,4275
2581.333779,4208
2582.498545,4261
2583.662533,4350
2584.825744,4190
2585.988179,4235
2587.149838,4314
2588.310721,4118
2589.47083,4183
2590.630165,4260
2591.788725,4271
2592.946512,4246
2594.103526,4193
2595.259767,4194
2596.415237,4230
2597.569934,4318
2598.723861,4259
2599.877017,4319
2601.029403,4180
2602.181019,4217
2603.331866,4165
2604.481944,4296
2605.631254,4302
2606.779796,4194
2607.92757,4268
2609.074578,4308
2610.220819,4180
2611.366295,4227
2612.511004,4507
2613.654949,4315
2614.798129,4134
2615.940545,4242
2617.082198,4358
2618.223087,4122
2619.363214,4169
2620.502578,4251
2621.64118,4479
2622.779022,4160
2623.916102,4313
2625.052422,4127
2626.187982,4131
2627.322782,4148
2628.456824,4378
2629.590107,4222
2630.722631,4131
2631.854399,4228
2632.985409,4206
2634.115662,4228
2635.245159,4372
2636.3739,4371
2637.501886,4175
2638.629117,4205
2639.755593,4207
2640.881316,4328
2642.006285,4393
2643.130501,4160
2644.253964,4230
2645.376676,4113
2646.498635,4272
2647.619843,4196
2648.740301,4171
2649.860008,4305
2650.978965,4305
2652.097173,4321
2653.214632,4158
2654.331343,4255
2655.447305,4235
2656.56252,4219
2657.676987,4257
2658.790708,4321
2659.903683,4357
2661.015911,4243
2662.127395,4223
2663.238133,4210
2664.348127,4162
2665.457377,4238
2666.565884,4214
2667.673647,4331
2668.780667,4228
2669.886946,4290
2670.992483,4166
2672.097278,4290
2673.201332,4284
2674.304646,4156
2675.40722,4198
2676.509055,4153
2677.61015,4370
2678.710507,4173
2679.810125,4331
2680.909006,4220
2682.007149,4243
2683.104556,4166
2684.201226,4459
2685.29716,4167
2686.392359,4249
2687.486822,4179
2688.580551,4315
2689.673545,4237
2690.765806,4195
2691.857334,4388
2692.948128,4118
2694.03819,4232
2695.12752,4331
2696.216119,4248
2697.303986,4157
2698.391123,4515
2699.477529,4144
2700.563206,4207
2701.648153,4510
2702.732371,4247
2703.81586,4338
2704.898622,4418
2705.980656,4242
2707.061963,4262
2708.142543,4194
2709.222396,4181
2710.301524,4558
2711.379926,4403
2712.457603,4258
2713.534556,4169
2714.610784,4372
2715.686289,4260
2716.76107,4270
2717.835129,4198
2718.908465,4291
2719.981079,4234
2721.052972,4242
2722.124143,4149
2723.194594,4200
2724.264324,4223
2725.333335,4229
2726.401626,4312
2727.469198,4227
2728.536051,4309
2729.602187,4318
2730.667605,4279
2731.732305,4217
2732.796289,4288
2733.859556,4161
2734.922107,4391
2735.983943,4185
2737.045063,4129
2738.105469,4436
2739.16516,4146
2740.224138,4246
2741.282402,4235
2742.339953,4140
2743.396792,4485
2744.452918,4189
2745.508333,4204
2746.563036,4309
2747.617029,4263
2748.670311,4181
2749.722883,4310
2750.774745,4204
2751.825899,4224
2752.876343,4380
2753.926079,4388
2754.975107,4269
2756.023428,4313
2757.071041,4296
2758.117948,4154
2759.164149,4545
2760.209643,4235
2761.254433,4274
2762.298517,4143
2763.341897,4206
2764.384572,4189
2765.426544,4194
2766.467813,4364
2767.508378,4265
2768.548241,4193
2769.587402,4195
2770.625862,4229
2771.66362,4376
2772.700677,4292
2773.737034,4176
2774.772691,4321
2775.807648,4305
2776.841907,4287
2777.875466,4154
2778.908327,4129
2779.94049,4146
2780.971956,4219
2782.002725,4308
2783.032797,4228
2784.062172,4118
2785.090852,4261
2786.118836,4652
2787.146125,4186
2788.17272,4200
2789.198621,4320
2790.223827,4203
2791.24834,4359
2792.272161,4185
2793.295288,4174
2794.317724,4264
2795.339467,4214
2796.36052,4361
2797.380881,4264
2798.400552,4182
2799.419533,4360
2800.437824,4312
2801.455426,4276
2802.472339,4189
2803.488563,4195
2804.504099,4146
2805.518948,4373
2806.533109,4197
2807.546584,4312
2808.559372,4226
2809.571474,4328
2810.58289,4299
2811.593621,4280
2812.603667,4306
2813.613029,4224
2814.621706,4219
2815.6297,4242
2816.637011,4534
2817.643639,4224
2818.649584,4295
2819.654848,4250
2820.65943,4362
2821.66333,4538
2822.66655,4207
2823.669089,4343
2824.670948,4223
2825.672128,4498
2826.672628,4475
2827.67245,4189
2828.671593,4226
2829.670058,4323
2830.667846,4260
2831.664956,4284
2832.661389,4225
2833.657146,4259
2834.652227,4181
2835.646632,4371
2836.640362,4325
2837.633417,4223
2838.625798,4395
2839.617505,4230
2840.608537,4367
2841.598897,4278
2842.588584,4253
2843.577598,4279
2844.56594,4241
2845.553611,4383
2846.54061,4411
2847.526938,4245
2848.512596,4219
2849.497583,4685
2850.481901,4529
2851.46555,4230
2852.448529,4349
2853.43084,4225
2854.412483,4445
2855.393458,4241
2856.373766,4163
2857.353407,4204
2858.332381,4368
2859.310689,4928
2860.288331,4198
2861.265307,4214
2862.241619,4345
2863.217266,4246
2864.192248,4473
2865.166567,4235
2866.140222,4271
2867.113215,4445
2868.085544,4308
2869.057211,4332
2870.028216,4226
2870.99856,4307
2871.968242,4495
2872.937264,4346
2873.905625,4272
2874.873326,4418
2875.840368,4389
2876.80675,4413
2877.772474,4185
2878.737539,4391
2879.701945,4217
2880.665695,4389
2881.628786,4283
2882.591221,4236
2883.553,4306
2884.514122,4321
2885.474588,4283
2886.434399,4465
2887.393555,4310
2888.352056,4341
2889.309903,4365
2890.267096,4317
2891.223636,4346
2892.179522,4594
2893.134756,4352
2894.089337,4287
2895.043266,4271
2895.996544,4316
2896.949171,4375
2897.901146,4280
2898.852471,4308
2899.803146,4569
2900.753172,4398
2901.702548,4268
2902.651275,4321
2903.599353,4291
2904.546783,4274
2905.493566,4223
2906.439701,4802
2907.385188,4236
2908.330029,4248
2909.274224,4241
2910.217773,4453
2911.160676,4260
2912.102934,4440
2913.044547,4396
2913.985516,4318
2914.925841,4388
2915.865522,4244
2916.804559,4247
2917.742954,4299
2918.680706,4214
2919.617815,4469
2920.554283,4306
2921.49011,4287
2922.425295,4218
2923.35984,4395
2924.293744,4332
2925.227008,4241
2926.159633,4309
2927.091618,4424
2928.022964,4546
2928.953672,4354
2929.883742,4472
2930.813174,4370
2931.741969,4180
2932.670126,4317
2933.597647,4311
2934.524532,4585
2935.45078,4265
2936.376393,4375
2937.301371,4386
2938.225714,4428
2939.149423,4379
2940.072497,4343
2940.994938,4360
2941.916745,4356
2942.83792,4415
2943.758461,4230
2944.678371,4393
2945.597648,4279
2946.516294,4264
2947.434309,4343
2948.351693,4282
2949.268446,4529
2950.18457,4420
2951.100063,4388
2952.014928,4440
2952.929163,4435
2953.84277,4239
2954.755748,4256
2955.668099,4259
2956.579822,4394
2957.490917,4267
2958.401386,4226
2959.311229,4334
2960.220445,4302
2961.129036,4309
2962.037001,4327
2962.944341,4298
2963.851057,4222
2964.757148,4457
2965.662615,4297
2966.567459,4418
2967.471679,4344
2968.375277,4379
2969.278252,4302
2970.180604,4307
2971.082336,4444
2971.983445,4324
2972.883934,4364
2973.783802,4361
2974.683049,4465
2975.581676,4243
2976.479684,4335
2977.377073,4285
2978.273842,4285
2979.169993,4462
2980.065526,4401
2980.960441,4348
2981.854738,4343
2982.748418,4330
2983.641481,4301
2984.533928,4410
2985.425759,4435
2986.316974,4943
2987.207573,4266
2988.097558,4257
2988.986927,4454
2989.875683,4298
2990.763824,4397
2991.651352,4313
2992.538266,4495
2993.424568,4360
2994.310257,4382
2995.195334,4319
2996.079798,4481
2996.963652,4343
2997.846894,4552
2998.729525,4433
2999.611546,4268
3000.492956,4434
3001.373757,4537
3002.253949,4425
3003.133531,4307
3004.012504,4466
3004.89087,4333
3005.768627,4345
3006.645776,4315
3007.522318,4382
3008.398253,4317
3009.273582,4353
3010.148304,4402
3011.02242,4498
3011.89593,4355
3012.768835,4488
3013.641136,4658
3014.512831,4380
3015.383923,4309
3016.25441,4275
3017.124294,4349
3017.993575,4502
3018.862253,4309
3019.730329,4420
3020.597802,4444
3021.464673,4312
3022.330943,4358
3023.196612,4405
3024.06168,4304
3024.926148,4326
3025.790015,4325
3026.653283,4447
3027.515951,4481
3028.37802,4378
3029.23949,4474
3030.100362,4271
3030.960636,4441
3031.820312,4322
3032.679391,4430
3033.537873,4333
3034.395758,4339
3035.253047,4349
3036.109739,4433
3036.965836,4428
3037.821338,4343
3038.676245,4318
3039.530557,4541
3040.384274,4471
3041.237398,4416
3042.089928,4458
3042.941865,4580
3043.793208,4274
3044.643959,4318
3045.494118,4281
3046.343685,4376
3047.19266,4380
3048.041044,4456
3048.888837,4477
3049.736039,4384
3050.582651,4331
3051.428673,4358
3052.274105,4321
3053.118948,4465
3053.963202,4350
3054.806868,4359
3055.649945,4407
3056.492435,4390
3057.334336,4341
3058.175651,4364
3059.016378,4410
3059.856519,4348
3060.696074,4388
3061.535042,4337
3062.373425,4643
3063.211223,4333
3064.048436,4745
3064.885064,4505
3065.721108,4431
3066.556568,4365
3067.391444,4355
3068.225737,4508
3069.059447,4427
3069.892575,4426
3070.72512,4442
3071.557083,4348
3072.388464,4397
3073.219264,4972
3074.049484,4492
3074.879122,4284
3075.70818,4494
3076.536658,4535
3077.364557,4480
3078.191876,4353
3079.018616,4344
3079.844778,4349
3080.670361,4341
3081.495366,4388
3082.319793,4388
3083.143643,4349
3083.966916,4446
3084.789612,4353
3085.611732,4489
3086.433276,4384
3087.254244,4512
3088.074636,4366
3088.894454,4366
3089.713697,4284
3090.532365,4479
3091.350459,4367
3092.167979,4348
3092.984926,4348
3093.8013,4374
3094.617101,4474
3095.432329,4501
3096.246985,4448
3097.061069,4469
3097.874582,4456
3098.687524,4406
3099.499894,4551
3100.311694,4494
3101.122924,4321
3101.933584,4518
3102.743675,4545
3103.553196,4373
3104.362148,4507
3105.170531,4706
3105.978346,4783
3106.785593,4379
3107.592273,4397
3108.398385,4412
3109.20393,4345
3110.008908,4508
3110.81332,4467
3111.617166,4579
3112.420446,4516
3113.22316,4368
3114.02531,4387
3114.826894,4906
3115.627915,4374
3116.428371,4404
3117.228263,4401
3118.027591,4418
3118.826357,4462
3119.624559,4397
3120.422199,4408
3121.219277,4410
3122.015792,4465
3122.811747,4355
3123.607139,4468
3124.401971,4548
3125.196242,4443
3125.989953,4547
3126.783103,4439
3127.575694,4405
3128.367725,4345
3129.159198,4513
3129.950111,4418
3130.740466,4507
3131.530263,4431
3132.319502,4400
3133.108183,4375
3133.896308,4462
3134.683875,4449
3135.470886,4376
3136.25734,4444
3137.043238,4557
3137.828581,4489
3138.613368,4433
3139.397601,4385
3140.181278,4540
3140.964401,4391
3141.74697,4391
3142.528986,4482
3143.310447,4408
3144.091356,4461
3144.871711,4542
3145.651515,4375
3146.430765,4414
3147.209464,4548
3147.987612,4429
3148.765208,4409
3149.542253,4352
3150.318747,4496
3151.094691,4425
3151.870085,4411
3152.644929,4615
3153.419223,4447
3154.192968,4422
3154.966165,4557
3155.738813,4401
3156.510913,4540
3157.282464,4468
3158.053469,4571
3158.823925,4670
3159.593835,4427
3160.363198,4553
3161.132015,4422
3161.900286,4478
3162.66801,4502
3163.43519,4569
3164.201824,4474
3164.967913,4430
3165.733458,4416
3166.498458,4639
3167.262915,4446
3168.026828,4495
3168.790197,4442
3169.553024,4597
3170.315307,4521
3171.077049,4453
3171.838248,4590
3172.598905,4445
3173.359021,4556
3174.118595,4489
3174.877629,4529
3175.636122,4500
3176.394075,4416
3177.151487,4433
3177.90836,4476
3178.664694,4527
3179.420488,4516
3180.175744,4590
3180.930461,4464
3181.68464,4505
3182.438281,4485
3183.191384,4459
3183.94395,4535
3184.695979,4446
3185.447471,4446
3186.198427,4461
3186.948847,4436
3187.698731,4490
3188.448079,4507
3189.196893,4622
3189.945171,4605
3190.692915,4512
3191.440124,4655
3192.186799,4553
3192.932941,4472
3193.678549,4530
3194.423624,4472
3195.168166,4672
3195.912176,4556
3196.655654,4517
3197.398599,4526
3198.141013,4589
3198.882896,4491
3199.624247,4524
3200.365068,4492
3201.105358,4639
3201.845118,4516
3202.584348,4563
3203.323049,4469
3204.06122,4500
3204.798863,4503
3205.535977,4465
3206.272562,4508
3207.008619,4561
3207.744148,4515
3208.47915,4504
3209.213625,4499
3209.947573,4696
3210.680994,4537
3211.413889,4484
3212.146257,4698
3212.8781,4625
3213.609418,4499
3214.34021,4565
3215.070478,4599
3215.800221,4495
3216.529439,4640
3217.258134,4534
3217.986305,4544
3218.713952,4465
3219.441076,4517
3220.167678,4618
3220.893757,4635
3221.619313,4525
3222.344348,4550
3223.068861,4543
3223.792853,4548
3224.516323,4489
3225.239273,4511
3225.961702,4624
3226.683611,4576
3227.405001,4550
3228.12587,4567
3228.84622,4493
3229.566051,4506
3230.285363,4654
3231.004157,4553
3231.722432,4579
3232.44019,4524
3233.15743,4605
3233.874153,5054
3234.590358,4536
