57.42448267,4654
60.29131328,4910.1
63.15612404,4779.8
66.01891664,4800.1
68.87969276,4818.9
71.73845411,5384
74.59520236,5200.7
77.44993921,5579.5
80.30266633,7391.8
83.15338541,13692
86.00209813,25920.3
88.84880617,39885.9
91.6935112,48422.2
94.53621489,53309
97.37691893,49900.6
100.215625,45099.1
103.0523347,41436.2
105.8870498,35703.3
108.7197719,31359.2
111.5505026,28262.6
114.3792437,24299.7
117.2059968,21880.3
120.0307636,19982.5
122.8535457,18511
125.6743447,17208
128.4931623,16437.8
131.3100002,15625.5
134.1248601,15419
136.9377435,14894.2
139.7486521,14910.2
142.5575875,14726.9
145.3645515,14495.8
148.1695455,14489.6
150.9725714,14461.7
153.7736306,14611.8
156.5727249,14442.3
159.3698559,14428
162.1650252,14451.8
164.9582344,14522
167.7494851,14409
170.5387791,14459.2
173.3261178,14350.8
176.111503,14403.7
178.8949363,14245.2
181.6764192,14142.7
184.4559533,14142.9
187.2335404,14034.9
190.009182,14174.1
192.7828797,14156.2
195.5546352,14038.3
198.32445,13893.9
201.0923257,14123.1
203.8582639,13801
206.6222664,13864.3
209.3843345,13920.8
212.1444701,13798
214.9026745,13957.2
217.6589495,14113.4
220.4132966,13982.5
223.1657175,13906
225.9162137,13770.2
228.6647868,13962.6
231.4114383,13930.8
234.15617,13953.8
236.8989832,13966
239.6398798,13925.9
242.3788611,13845.8
245.1159289,13713.4
247.8510846,13760
250.5843298,13685.1
253.3156662,13903.1
256.0450953,14089.3
258.7726186,13472.4
261.4982377,13574.5
264.2219542,13440.6
266.9437697,13611.8
269.6636857,13447.6
272.3817038,13436.8
275.0978255,13151.6
277.8120524,13252.9
280.524386,13082.8
283.234828,13101.4
285.9433797,13242
288.6500429,12974.9
291.3548191,13136.6
294.0577097,13088.5
296.7587164,12984
299.4578407,13005.2
302.1550841,13016.8
304.8504482,13158.7
307.5439344,13138.8
310.2355445,13181
312.9252798,12983
315.6131419,13140.5
318.2991323,13030
320.9832527,13191.6
323.6655044,13088.8
326.3458891,13346.7
329.0244082,13308.1
331.7010633,13149
334.3758559,13075.1
337.0487875,13256
339.7198596,13054.8
342.3890738,13191.9
345.0564316,13362.2
347.7219345,13392
350.3855839,13459.4
353.0473815,13439.9
355.7073287,13476.6
358.365427,13608.4
361.0216779,13588.5
363.676083,13824.4
366.3286437,14066.9
368.9793615,13755.9
371.6282379,13947.7
374.2752745,13965.3
376.9204727,14119.2
379.5638341,14061.6
382.20536,14052.9
384.8450521,14219.2
387.4829117,14180.9
390.1189404,14346
392.7531397,14056.6
395.385511,14116.6
398.0160559,14363.3
400.6447758,14298.8
403.2716721,14079.7
405.8967465,14048
408.5200003,14101.5
411.141435,14054.2
413.7610521,13753.1
416.3788531,13670.8
418.9948394,13560.2
421.6090125,13677.9
424.2213739,13856.3
426.831925,13546.9
429.4406673,13443.8
432.0476023,13472.8
434.6527314,13534.7
437.2560561,13318.1
439.8575778,13389.5
442.4572981,13367.9
445.0552182,13356.7
447.6513398,13463.9
450.2456643,13491.6
452.838193,13293.1
455.4289275,13310.5
458.0178692,13393.3
460.6050195,13407.9
463.1903799,13459.4
465.7739518,13247.2
468.3557368,13397.3
470.9357361,13407.9
473.5139512,13301.2
476.0903837,13265.6
478.6650348,13387.7
481.2379061,13323.2
483.808999,13370.2
486.3783149,13638.5
488.9458552,13462.2
491.5116214,13749.3
494.0756149,13758.7
496.637837,13566.9
499.1982893,13726.7
501.7569732,13707.6
504.31389,14018.8
506.8690412,13953.8
509.4224283,13895.3
511.9740525,13918.5
514.5239154,13912.7
517.0720183,14037.6
519.6183627,13818.2
522.1629499,13925.1
524.7057814,13963.9
527.2468585,13851.7
529.7861828,13751.1
532.3237555,13816.5
534.8595781,13839.1
537.3936519,14090.5
539.9259785,13938.8
542.4565591,13956.9
544.9853952,13954
547.5124881,14144
550.0378393,13731
552.5614502,13845.4
555.0833221,13893.7
557.6034563,13777.5
560.1218544,13699.8
562.6385177,13803.6
565.1534476,13539.6
567.6666454,13702.2
570.1781125,13496.5
572.6878504,13529.8
575.1958603,13588
577.7021437,13758.7
580.206702,13417
582.7095365,13291.5
585.2106485,13314.4
587.7100395,13221.7
590.2077108,13169.3
592.7036638,13124.2
595.1978999,13207.4
597.6904204,13376.6
600.1812266,13429
602.67032,13474.9
605.1577019,13753
607.6433737,13657.1
610.1273367,13536.8
612.6095922,13410.5
615.0901417,13345
617.5689865,13404.7
620.0461278,13165.1
622.5215672,13275.7
624.9953059,13294.4
627.4673453,13193.6
629.9376867,13352
632.4063314,13274.6
634.8732809,13362.8
637.3385364,13568.6
639.8020993,13617.8
642.2639709,13316.5
644.7241525,13263.1
647.1826456,13282.9
649.6394514,13453.4
652.0945713,13268.2
654.5480066,13426.5
656.9997586,13359.8
659.4498286,13358.8
661.8982181,13490.5
664.3449282,13128
666.7899604,13219.7
669.2333159,13397.6
671.6749961,13211.7
674.1150023,13715.7
676.5533358,12915.5
678.9899979,12883.7
681.42499,13191.8
683.8583134,12934.9
686.2899693,13029.9
688.7199592,12962.4
691.1482842,13241.8
693.5749457,12744.6
695.999945,12806.8
698.4232835,12631.1
700.8449624,12906.1
703.264983,12605.6
705.6833467,12406.5
708.1000547,13254.9
710.5151083,12624.6
712.9285088,12535
715.3402576,12609.2
717.7503559,12425.5
720.158805,12376
722.5656063,12510
724.9707609,12560.3
727.3742702,12412
729.7761355,12452.7
732.1763581,12349
734.5749392,12426.5
736.9718802,12453.5
739.3671822,12416.8
741.7608467,12329.4
744.1528749,12386.6
746.543268,12299.9
748.9320274,12447.5
751.3191543,12252.7
753.70465,12310.6
756.0885158,12417.2
758.4707529,12382.1
760.8513626,12763.8
763.2303462,12529.1
765.6077049,12569.1
767.98344,12937.2
770.3575529,12604.5
772.7300447,12597.8
775.1009167,12543.4
777.4701702,12608.2
779.8378064,12221.1
782.2038266,12372.4
784.568232,12328.1
786.931024,12244.5
789.2922037,12566.7
791.6517725,12239.1
794.0097315,12235.7
796.366082,12127.7
798.7208253,12398.3
801.0739627,12182.8
803.4254953,12291.1
805.7754244,12007.8
808.1237513,11975.3
810.4704772,12054.4
812.8156033,12099.2
815.159131,12103.6
817.5010613,12075.7
819.8413957,12274.2
822.1801352,12039.4
824.5172812,11852
826.8528349,11936.8
829.1867974,11954.4
831.5191702,11906
833.8499542,11910
836.1791509,11908.1
838.5067615,11860.1
840.832787,11843.3
843.1572289,11827.6
845.4800883,11769.8
847.8013664,11778.9
850.1210645,11656.8
852.4391837,11621
854.7557254,11624.5
857.0706907,11456.7
859.3840808,11465.1
861.6958969,11539.8
864.0061403,11281
866.3148122,11330.9
868.6219138,11519.9
870.9274462,11316.9
873.2314108,11355.2
875.5338087,11222.6
877.8346411,11292.9
880.1339093,11400.4
882.4316144,11335.7
884.7277576,11337.6
887.0223402,11333.8
889.3153633,11323.6
891.6068282,11282.9
893.896736,11264.6
896.1850879,11087.3
898.4718852,11317
900.757129,11136.8
903.0408205,11178.6
905.3229609,11240.2
907.6035515,11157.1
909.8825933,11256.2
912.1600876,11287.9
914.4360356,11071.8
916.7104385,11091
918.9832974,11111.4
921.2546135,11169.6
923.524388,11379.9
925.7926222,11170.9
928.059317,11228.9
930.3244739,11338.4
932.5880939,11371
934.8501782,11706.3
937.1107279,11097.8
939.3697443,11062.5
941.6272286,11269.8
943.8831818,11158.1
946.1376052,11429.4
948.3905,11221.9
950.6418672,11067.2
952.8917082,11129.1
955.1400239,11214.6
957.3868157,11017.4
959.6320847,11015.6
961.875832,10845.1
964.1180587,10906.7
966.3587662,10808.3
968.5979554,11102.4
970.8356276,10907.4
973.0717839,10862.5
975.3064255,10910.6
977.5395536,10948.3
979.7711692,10755.2
982.0012736,10801
984.2298678,10721.6
986.4569531,10629.9
988.6825306,10628.5
990.9066014,10579.9
993.1291667,10538.8
995.3502276,10608.7
997.5697853,10479.3
999.7878409,10460.2
1002.004396,10360.9
1004.21945,10301.8
1006.433007,10451.2
1008.645065,10356.9
1010.855627,10481.3
1013.064694,10420.3
1015.272267,10341.5
1017.478347,10386.8
1019.682935,10486.3
1021.886032,10487.6
1024.08764,10380.1
1026.287759,10101.3
1028.486391,10255.4
1030.683537,10330
1032.879197,10242.2
1035.073374,10229.2
1037.266068,10224
1039.45728,10350.2
1041.647011,10136.2
1043.835263,10106.4
1046.022036,10399
1048.207333,10146.5
1050.391153,10181.2
1052.573498,10201.4
1054.754369,10427.7
1056.933768,10294.8
1059.111694,10287.1
1061.288151,10237.1
1063.463137,10159
1065.636656,10246.6
1067.808707,10178.6
1069.979292,10310.9
1072.148412,10186.6
1074.316068,10319.2
1076.482261,10217.5
1078.646992,10219.2
1080.810263,10192.3
1082.972075,10372.3
1085.132427,10135.6
1087.291323,10312.8
1089.448762,10181.4
1091.604746,10101.1
1093.759277,10181.1
1095.912354,10068.9
1098.063979,9955.1
1100.214154,10034.6
1102.362878,10062.2
1104.510155,10015.8
1106.655983,9999.5
1108.800366,10133.6
1110.943303,9988.6
1113.084796,9856.9
1115.224845,9809.4
1117.363453,9876
1119.500619,9836.4
1121.636346,9899.2
1123.770633,9955.5
1125.903483,9794.5
1128.034896,9753.1
1130.164874,9836.9
1132.293417,9734.8
1134.420527,9878.9
1136.546204,9695.5
1138.67045,9681
1140.793265,9502.4
1142.914652,9480.5
1145.03461,9485.5
1147.153141,9591.7
1149.270246,9509
1151.385927,9485.1
1153.500183,9592.9
1155.613017,9575.8
1157.724429,9617.8
1159.83442,9597.1
1161.942992,9553.9
1164.050145,9563.8
1166.15588,9705.9
1168.260199,9605.6
1170.363103,9969.1
1172.464592,9733.6
1174.564668,9559.2
1176.663332,9897.5
1178.760585,9824.4
1180.856427,9812.1
1182.950861,9682.4
1185.043886,9647.9
1187.135505,9890.8
1189.225717,9505.5
1191.314525,9566.9
1193.401928,9352.7
1195.487929,9554.7
1197.572528,9413.5
1199.655727,9470.9
1201.737526,9330.2
1203.817926,9176.9
1205.896928,9252.5
1207.974534,9225.7
1210.050744,9234.9
1212.12556,9402.1
1214.198982,9266.3
1216.271012,9356.3
1218.341651,9141.3
1220.410899,9082.3
1222.478758,9091.3
1224.545228,9036.4
1226.610311,9021.1
1228.674008,9079.2
1230.736319,9102.6
1232.797247,9074.6
1234.856791,9062.9
1236.914953,9105.5
1238.971734,9186.9
1241.027134,9201
1243.081156,9026.8
1245.1338,8914.7
1247.185066,8905.7
1249.234956,9022.9
1251.283471,9012.8
1253.330613,9103.8
1255.376381,8818.3
1257.420777,8793.5
1259.463802,9096.1
1261.505458,8943.8
1263.545744,8987.7
1265.584662,9014.5
1267.622213,9148.9
1269.658399,8967.6
1271.693219,9090.5
1273.726675,8949.3
1275.758769,8990
1277.7895,8879.5
1279.818871,8826.6
1281.846881,8695
1283.873533,9000.2
1285.898827,8833.2
1287.922764,8914.3
1289.945344,8812
1291.96657,8914.8
1293.986442,9012.2
1296.004961,9036.2
1298.022128,9257.9
1300.037944,9370.1
1302.05241,9438.8
1304.065527,9582.4
1306.077296,9340.7
1308.087718,9671.9
1310.096794,9227.7
1312.104524,9153.2
1314.110911,9232.5
1316.115955,9037
1318.119656,8746
1320.122017,8739.1
1322.123037,8733.6
1324.122718,8803.1
1326.121061,8564.8
1328.118067,8602.6
1330.113736,8757.3
1332.10807,8744.4
1334.10107,8657.6
1336.092737,8684.2
1338.083071,8773.1
1340.072074,8549.6
1342.059746,8680.1
1344.046089,8761.2
1346.031104,8794.8
1348.014791,8898.1
1349.997152,8916.5
1351.978187,8897.5
1353.957897,9037.7
1355.936284,9187.9
1357.913348,9287.3
1359.889091,9548.2
1361.863513,9349.2
1363.836615,9348.2
1365.808398,9097.3
1367.778863,9165.7
1369.748012,8678
1371.715844,8591
1373.682362,8744.6
1375.647565,8395
1377.611456,8264.6
1379.574034,8392.9
1381.535301,8496.8
1383.495258,8325
1385.453906,8307
1387.411245,8621.2
1389.367277,8226
1391.322003,8205.4
1393.275423,8149.8
1395.227538,8117.7
1397.17835,8112.7
1399.12786,8017.9
1401.076067,8085.8
1403.022974,8116.9
1404.968581,8148.1
1406.912889,8056.5
1408.8559,8109.7
1410.797613,8149.8
1412.73803,8182.6
1414.677153,8054.9
1416.61498,8071.4
1418.551515,7929.2
1420.486758,7979.9
1422.420709,8280.7
1424.353369,7900.4
1426.28474,8010
1428.214823,7984
1430.143618,7957.5
1432.071126,7906.1
1433.997348,7922.5
1435.922286,7913.9
1437.845939,7872.3
1439.76831,7844.7
1441.689398,7870.7
1443.609205,7737.5
1445.527732,7991.6
1447.44498,7910.3
1449.360949,7757.3
1451.275641,7922.9
1453.189056,7750.1
1455.101196,7729.3
1457.012061,7775.2
1458.921652,7805
1460.82997,7675.8
1462.737016,7772.4
1464.642791,7748.3
1466.547296,7676.7
1468.450531,7753.4
1470.352499,7644.7
1472.253199,8044.6
1474.152632,7777.8
1476.0508,7786.4
1477.947703,7874
1479.843342,7731.9
1481.737719,7846.1
1483.630833,7697.5
1485.522686,7651.1
1487.413279,7837.3
1489.302613,7809.6
1491.190689,7960.9
1493.077507,7863
1494.963068,7902
1496.847374,8172.5
1498.730425,8099.5
1500.612222,8371.5
1502.492767,8400.3
1504.372059,8648.9
1506.250099,8523
1508.12689,8531.9
1510.002431,8443.5
1511.876724,8340.3
1513.749769,8282.3
1515.621567,7991.8
1517.49212,7860.4
1519.361427,7906.8
1521.229491,7738.3
1523.096311,7759.5
1524.961889,7575.6
1526.826226,7661.6
1528.689322,7518.5
1530.551178,7453.4
1532.411796,7540.7
1534.271176,7504.6
1536.129319,7398.5
1537.986225,7482.4
1539.841897,7425.3
1541.696334,7418.6
1543.549538,7384.8
1545.401509,7352.8
1547.252248,7501.7
1549.101756,7338.2
1550.950035,7352.3
1552.797084,7288.3
1554.642905,7517
1556.487499,7501.5
1558.330867,7303.9
1560.173008,7275.2
1562.013925,7380.5
1563.853618,7446.1
1565.692088,7422.3
1567.529336,7203.7
1569.365363,7370
1571.200169,7336.5
1573.033756,7494.1
1574.866124,7293.7
1576.697274,7262
1578.527207,7359.5
1580.355925,7402.8
1582.183427,7128.7
1584.009714,7328.4
1585.834788,7620.3
1587.658649,7477.9
1589.481299,7304.6
1591.302738,7453.2
1593.122966,7230.2
1594.941985,7319.6
1596.759796,7174.8
1598.5764,7077
1600.391796,7138.3
1602.205987,7207.6
1604.018973,7175.6
1605.830755,7193.3
1607.641333,7180.4
1609.450709,7105.5
1611.258884,7092.5
1613.065858,7201.9
1614.871632,7182.3
1616.676206,6993.6
1618.479583,7019.5
1620.281762,7176.3
1622.082745,6946.8
1623.882532,6905.1
1625.681124,7014.9
1627.478523,7192
1629.274728,7009.5
1631.06974,7234.8
1632.863562,7061.3
1634.656192,7304.4
1636.447633,7021.8
1638.237885,7115
1640.026949,7072.6
1641.814826,6935.5
1643.601516,7147.5
1645.38702,7089.7
1647.17134,7012.3
1648.954475,7142.1
1650.736428,7036.3
1652.517198,7062.8
1654.296787,6998.6
1656.075195,6984.7
1657.852423,6808
1659.628472,6791.4
1661.403343,6748.7
1663.177037,6916
1664.949554,6772.6
1666.720896,6740.4
1668.491062,6788.8
1670.260055,6677.4
1672.027874,6739.2
1673.794521,6743
1675.559997,6749.2
1677.324301,6669
1679.087436,6601.8
1680.849401,6571.5
1682.610198,6681.6
1684.369828,6635.2
1686.128291,6614.6
1687.885588,6720.9
1689.64172,6624.5
1691.396687,6594
1693.150492,6609.6
1694.903133,6586.9
1696.654613,6643.7
1698.404932,6621
1700.15409,6633.1
1701.902089,6459
1703.64893,6769.8
1705.394613,6443.1
1707.139139,6601
1708.882508,6502.3
1710.624722,6539.5
1712.365782,6583.9
1714.105688,6347.8
1715.844441,6405.6
1717.582042,6453.2
1719.318491,6547
1721.05379,6396.9
1722.787939,6508
1724.520939,6474.7
1726.252791,6568.4
1727.983496,6580.4
1729.713054,6542.4
1731.441466,6440.5
1733.168733,6388.3
1734.894856,6429.9
1736.619836,6601.5
1738.343673,6509.6
1740.066368,6418.6
1741.787923,6314.3
1743.508337,6276.8
1745.227611,6351.9
1746.945747,6297.2
1748.662745,6364.2
1750.378606,6274.5
1752.093331,6327.4
1753.80692,6590.4
1755.519374,6323.9
1757.230695,6502.3
1758.940882,6380.1
1760.649937,6311.6
1762.35786,6219.2
1764.064653,6313.5
1765.770315,6225
1767.474849,6255.4
1769.178253,6178
1770.880531,6243.8
1772.581681,6157.9
1774.281705,6276.9
1775.980603,6209.2
1777.678378,6144.8
1779.375028,6289.9
1781.070555,6202.4
1782.76496,6210.4
1784.458244,6316.2
1786.150406,6194.2
1787.841449,6206.4
1789.531373,6203.1
1791.220178,6100.6
1792.907866,6116.7
1794.594437,6138.8
1796.279891,6353.1
1797.964231,6228
1799.647455,6123.3
1801.329566,6180.6
1803.010564,6083.7
1804.69045,6135.4
1806.369224,6461.6
1808.046887,6013.3
1809.723441,6103.4
1811.398885,6112.3
1813.073221,6100.9
1814.746449,6091.1
1816.41857,5956
1818.089585,6001.5
1819.759494,5887.1
1821.428299,6019.9
1823.096,5976.6
1824.762598,5905.2
1826.428093,5959.1
1828.092487,5870.2
1829.75578,5980.9
1831.417972,5948.3
1833.079065,5990.6
1834.73906,6239.7
1836.397957,5979.4
1838.055757,5875.2
1839.71246,5980.1
1841.368067,5923.6
1843.02258,6040.7
1844.675999,5856.9
1846.328324,5929.9
1847.979556,5831.4
1849.629697,5844.8
1851.278747,5941.1
1852.926706,5763.9
1854.573575,5841.9
1856.219356,5819.3
1857.864048,5875.2
1859.507653,5882.6
1861.150171,5850.9
1862.791603,5967.7
1864.43195,5760.8
1866.071213,5795.5
1867.709391,5903
1869.346487,5896.4
1870.982501,6079.7
1872.617433,5870
1874.251284,5708.4
1875.884055,5690.9
1877.515747,5828.6
1879.14636,5708.7
1880.775895,5782.2
1882.404353,5691.9
1884.031735,5759.8
1885.658041,5691.7
1887.283273,5699
1888.90743,5730.7
1890.530513,5763.8
1892.152524,5717.7
1893.773463,5744.8
1895.39333,5883.6
1897.012127,5711
1898.629854,5655.6
1900.246512,5952.7
1901.862101,5753.8
1903.476623,5767.7
1905.090078,5667.6
1906.702467,5811
1908.31379,5606.9
1909.924048,5701.6
1911.533243,5652.2
1913.141374,5660.4
1914.748442,5803.8
1916.354448,5841.4
1917.959394,5726
1919.563278,5887.8
1921.166104,5681.8
1922.767869,5786.7
1924.368577,5775.6
1925.968227,5679.7
1927.56682,5691.2
1929.164357,5813.4
1930.760839,5550.5
1932.356266,5621
1933.950638,5601.1
1935.543958,5702.9
1937.136224,5898.7
1938.727439,5520.6
1940.317603,5703.7
1941.906716,5565.6
1943.494779,5709.4
1945.081794,5585.3
1946.667759,5697.9
1948.252678,5568.7
1949.836549,5616.2
1951.419374,5480.7
1953.001153,5579
1954.581888,5542.7
1956.161578,5473.2
1957.740225,5592.2
1959.317829,5567.3
1960.894391,5646
1962.469912,5440.5
1964.044392,5498.2
1965.617832,5468.1
1967.190233,5477.6
1968.761596,5607.3
1970.33192,5472.5
1971.901207,5581.4
1973.469458,5459
1975.036673,5415.7
1976.602853,5462.8
1978.167999,5433.9
1979.732111,5399.7
1981.29519,5409.7
1982.857236,5426.7
1984.418251,5440.7
1985.978235,5665.2
1987.537189,5339.7
1989.095113,5341.8
1990.652009,5409.2
1992.207876,5381.5
1993.762716,5776.6
1995.316528,5473.6
1996.869315,5428
1998.421077,5370.8
1999.971813,5379.4
2001.521526,5477.9
2003.070215,5416.3
2004.617882,5404.1
2006.164526,5419.8
2007.710149,5383.6
2009.254752,5290.9
2010.798334,5352.1
2012.340898,5351.4
2013.882442,5259
2015.422969,5443
2016.962479,5541
2018.500972,5337.4
2020.038449,5440.6
2021.57491,5316.2
2023.110358,5299.2
2024.644791,5355.6
2026.178211,5323.7
2027.710619,5378.9
2029.242015,5259.9
2030.7724,5348.6
2032.301774,5341.1
2033.830138,5245.9
2035.357493,5327.3
2036.88384,5239
2038.409179,5263.8
2039.933511,5318.7
2041.456836,5350.6
2042.979156,5347.3
2044.50047,5340
2046.02078,5331.6
2047.540086,5257
2049.058389,5239.2
2050.575689,5415.1
2052.091988,5179.6
2053.607285,5319.1
2055.121582,5305.4
2056.63488,5388
2058.147178,5178.8
2059.658477,5193.2
2061.168779,5201.1
2062.678083,5167.6
2064.186391,5249.1
2065.693703,5356.6
2067.20002,5352.6
2068.705343,5224.6
2070.209671,5258
2071.713007,5226.2
2073.215349,5172.2
2074.7167,5206.9
2076.21706,5227.6
2077.716429,5183.5
2079.214808,5247.6
2080.712197,5153.9
2082.208599,5279.2
2083.704012,5096.2
2085.198437,5177.4
2086.691876,5177.1
2088.18433,5108.1
2089.675797,5186.7
2091.16628,5301.5
2092.655779,5225.4
2094.144294,5230.4
2095.631827,5254.3
2097.118377,5249.1
2098.603946,5099.5
2100.088534,5330.2
2101.572142,5128.6
2103.054771,5318.9
2104.53642,5152.8
2106.017091,5202.1
2107.496785,5133.3
2108.975501,5172.1
2110.453242,5087.8
2111.930006,5224.9
2113.405795,5080.4
2114.88061,5125.1
2116.354452,5108
2117.82732,5105.2
2119.299215,5141.8
2120.770139,5154.3
2122.240092,5063.3
2123.709074,5080.1
2125.177086,5076.4
2126.644128,5160.3
2128.110202,5153.2
2129.575308,5007.4
2131.039447,5002.9
2132.502618,4990.8
2133.964824,5088.5
2135.426064,5238.5
2136.886339,5090.3
2138.34565,4961.5
2139.803998,5029.8
2141.261382,5000.7
2142.717804,4948.6
2144.173264,5035.9
2145.627763,5089.6
2147.081302,5023.1
2148.533881,5068.1
2149.985501,5039.1
2151.436162,4990.9
2152.885865,4937.7
2154.334611,5009
2155.7824,4967
2157.229233,5046.4
2158.67511,4923.8
2160.120033,4994.6
2161.564001,4911.3
2163.007016,5022.8
2164.449078,5030.1
2165.890188,5024
2167.330346,4920.2
2168.769552,4982.3
2170.207809,4985.9
2171.645115,5057.7
2173.081472,4999.7
2174.51688,4909.4
2175.951341,5059.7
2177.384854,4938.8
2178.81742,4985.6
2180.24904,4927.8
2181.679715,5046
2183.109445,5086
2184.53823,5006.2
2185.966071,5116.1
2187.39297,4921.8
2188.818926,5287.5
2190.24394,4956.3
2191.668013,4950.1
2193.091145,5063.7
2194.513337,4965.7
2195.93459,4804.5
2197.354904,4883.3
2198.77428,4847.8
2200.192718,4948.7
2201.610219,4933
2203.026784,5585.5
2204.442413,4949.2
2205.857107,5194.6
2207.270866,4870.6
2208.683691,4852.1
2210.095583,4825.3
2211.506543,4865
2212.91657,5019.7
2214.325665,4857.8
2215.73383,4792.7
2217.141064,4931.6
2218.547369,4809.1
2219.952744,4931.4
2221.357191,4935.1
2222.76071,4870.7
2224.163301,4905.3
2225.564966,4799.4
2226.965705,4918
2228.365518,4866.6
2229.764406,4963.6
2231.16237,4883.4
2232.55941,4875
2233.955527,5037.6
2235.350722,4815.6
2236.744994,4836.1
2238.138345,4753.3
2239.530775,4808
2240.922286,4949.2
2242.312876,4823.7
2243.702548,4747.5
2245.091301,4858.9
2246.479136,4812.9
2247.866054,4852
2249.252056,4758.8
2250.637142,4727.6
2252.021312,4761.5
2253.404567,4805.1
2254.786908,4943.9
2256.168335,4709.1
2257.548849,4706.2
2258.928451,4832.3
2260.30714,4776.4
2261.684919,4755.3
2263.061786,4868.6
2264.437744,4870.1
2265.812792,4835.5
2267.186931,4751
2268.560161,4848
2269.932484,4715.6
2271.303899,4709.8
2272.674408,4836.1
2274.04401,4804.5
2275.412708,4794
2276.7805,4735
2278.147388,4784.6
2279.513372,4673.4
2280.878453,4941.7
2282.242631,4843.6
2283.605907,4667.6
2284.968282,4924.8
2286.329756,4821.7
2287.69033,4675.7
2289.050004,4849.8
2290.408779,4719.9
2291.766655,4681.5
2293.123633,4677.2
2294.479714,4758.5
2295.834898,4990.8
2297.189186,4668.8
2298.542578,4716.4
2299.895075,4694.5
2301.246677,4620.6
2302.597386,4659.3
2303.9472,4764.7
2305.296123,4627.5
2306.644152,4616
2307.991291,4624.3
2309.337538,4786.9
2310.682894,4724
2312.02736,4678.4
2313.370937,4723.6
2314.713626,4697.8
2316.055425,4678.8
2317.396337,4594.5
2318.736362,4781.6
2320.075501,4719
2321.413753,4817.1
2322.75112,4596.5
2324.087602,4751.1
2325.423199,4724.8
2326.757913,4793.9
2328.091744,4753.6
2329.424692,4683.5
2330.756757,4661.3
2332.087942,4600.6
2333.418245,4676.8
2334.747668,4610.6
2336.076211,4683.8
2337.403874,4702.1
2338.730659,4752.1
2340.056566,4728
2341.381595,4589.3
2342.705747,4615.3
2344.029023,4623.5
2345.351423,4677.2
2346.672947,4778.8
2347.993596,4709.8
2349.313371,4619.7
2350.632273,4735.8
2351.950301,4630
2353.267456,4733.8
2354.58374,4805.6
2355.899152,4658.1
2357.213693,4626.4
2358.527363,4885.9
2359.840164,4588.7
2361.152095,4715.5
2362.463158,4754.5
2363.773352,4626.3
2365.082679,4619.5
2366.391138,4604
2367.698731,4596
2369.005458,4525.7
2370.31132,4583.2
2371.616316,4632.3
2372.920448,4588.5
2374.223717,4607.8
2375.526122,4513.4
2376.827664,4655.7
2378.128344,4576.3
2379.428163,4574.6
2380.72712,5141.1
2382.025217,4622.1
2383.322453,4556.1
2384.61883,4734.2
2385.914349,4564.9
2387.209008,4574.4
2388.50281,4613.4
2389.795755,4658.8
2391.087843,4753.5
2392.379075,4538
2393.669451,4613.6
2394.958971,4649.4
2396.247637,4695.6
2397.535449,4644.2
2398.822408,4699.4
2400.108513,4575
2401.393766,4566.6
2402.678167,4621
2403.961717,4615.2
2405.244416,4690.8
2406.526264,4520.3
2407.807263,4570.9
2409.087412,4624.4
2410.366713,4655.5
2411.645165,4676.6
2412.92277,4684.3
2414.199527,4526
2415.475438,4574.9
2416.750503,4553.6
2418.024723,4475.2
2419.298097,4571.6
2420.570627,4544
2421.842313,4730.1
2423.113155,4491.4
2424.383155,4488.2
2425.652312,4527.5
2426.920627,4489.4
2428.188101,4553.2
2429.454735,4452.3
2430.720528,4713.1
2431.985481,4754.7
2433.249595,4462.7
2434.51287,4664
2435.775307,4522.8
2437.036907,4536.5
2438.297669,4536.8
2439.557595,4730.7
2440.816685,4439.2
2442.074939,4603.8
2443.332358,4537.9
2444.588943,4623.7
2445.844694,4576.7
2447.099611,4621.7
2448.353695,4538.1
2449.606947,4700.6
2450.859367,4455.4
2452.110956,4485.5
2453.361714,4517.3
2454.611641,4947.5
2455.860739,4681.7
2457.109007,4514.7
2458.356446,4603.2
2459.603058,4505
2460.848841,4510.8
2462.093797,4457.4
2463.337927,4476
2464.58123,4532.3
2465.823708,4416.7
2467.06536,4514.1
2468.306188,4513.3
2469.546191,4558.2
2470.785371,4429.8
2472.023728,4517.1
2473.261262,4496.3
2474.497974,4485.4
2475.733864,4499.5
2476.968934,4469.5
2478.203183,4459.1
2479.436611,4504.3
2480.66922,4576.1
2481.901011,4554.2
2483.131982,4615.7
2484.362136,4462.9
2485.591472,4460.1
2486.81999,4601.6
2488.047693,4408.5
2489.274579,4576.3
2490.50065,4394.3
2491.725906,4586.2
2492.950348,4530.5
2494.173975,4537.7
2495.396789,4487.2
2496.61879,4513.3
2497.839979,4594.2
2499.060355,4429.7
2500.27992,4489.2
2501.498675,4461.3
2502.716618,4481.2
2503.933752,4510.3
2505.150076,4467
2506.365592,4469.7
2507.580298,4476.2
2508.794197,4474.5
2510.007289,4383.5
2511.219573,4376.2
2512.431051,4366.2
2513.641723,4420.2
2514.85159,4454.3
2516.060652,4411.5
2517.268909,4345
2518.476362,4460.9
2519.683012,4486.2
2520.888858,4486.4
2522.093902,4528
2523.298145,4512.8
2524.501585,4432.3
2525.704225,4511.7
2526.906064,4507
2528.107104,4303.1
2529.307343,4435.1
2530.506784,4430.4
2531.705426,4381.3
2532.90327,4713
2534.100317,4428.8
2535.296566,4929.8
2536.492019,4369.4
2537.686676,4459.8
2538.880537,4679.7
2540.073603,4389.6
2541.265875,4385.8
2542.457352,4462.1
2543.648036,4335.8
2544.837927,4369.9
2546.027025,4329.8
2547.21533,4460.3
2548.402845,4323.3
2549.589567,4392.1
2550.7755,4341
2551.960642,4423.2
2553.144994,4361.8
2554.328557,4350.1
2555.511331,4314.1
2556.693317,4500.2
2557.874515,4386.7
2559.054926,4367.2
2560.23455,4437.8
2561.413387,4450.6
2562.591439,4531.6
2563.768705,4316
2564.945187,4365.2
2566.120884,4450.3
2567.295797,4581.9
2568.469926,4342
2569.643273,4416.7
2570.815837,4570.1
2571.987619,4452.3
2573.158619,4382.3
2574.328839,4382.9
2575.498278,4406.8
2576.666936,4437.1
2577.834815,4460.7
2579.001915,4421.8
2580.168236,4446.1
2581.333779,4400.1
2582.498545,4444.7
2583.662533,4518
2584.825744,4397.7
2585.988179,4425.5
2587.149838,4495.7
2588.310721,4325.9
2589.47083,4385.6
2590.630165,4466.2
2591.788725,4406.9
2592.946512,4444.5
2594.103526,4352.4
2595.259767,4363.5
2596.415237,4419.1
2597.569934,4461.5
2598.723861,4408.1
2599.877017,4445.4
2601.029403,4348.7
2602.181019,4384.7
2603.331866,4364.6
2604.481944,4436.2
2605.631254,4422.5
2606.779796,4371.4
2607.92757,4433.6
2609.074578,4424.7
2610.220819,4342.1
2611.366295,4416.8
2612.511004,4634.5
2613.654949,4464.2
2614.798129,4311.7
2615.940545,4386.7
2617.082198,4479.7
2618.223087,4310.1
2619.363214,4333.3
2620.502578,4414
2621.64118,4595.8
2622.779022,4325.8
2623.916102,4435.8
2625.052422,4309.9
2626.187982,4325.3
2627.322782,4314.4
2628.456824,4520.6
2629.590107,4377
2630.722631,4310.1
2631.854399,4372.7
2632.985409,4363
2634.115662,4407.8
2635.245159,4492.7
2636.3739,4498.9
2637.501886,4377.3
2638.629117,4338
2639.755593,4331.3
2640.881316,4454.1
2642.006285,4489.1
2643.130501,4336.7
2644.253964,4339.6
2645.376676,4295.2
2646.498635,4406.5
2647.619843,4375.7
2648.740301,4328.4
2649.860008,4444.5
2650.978965,4411.4
2652.097173,4438.5
2653.214632,4316.8
2654.331343,4426.6
2655.447305,4349.4
2656.56252,4341.6
2657.676987,4372.2
2658.790708,4426.4
2659.903683,4467.3
2661.015911,4379.2
2662.127395,4375.7
2663.238133,4337.8
2664.348127,4295.9
2665.457377,4359.1
2666.565884,4340
2667.673647,4406.6
2668.780667,4359.6
2669.886946,4369.1
2670.992483,4322.2
2672.097278,4406.2
2673.201332,4434
2674.304646,4319.3
2675.40722,4357.9
2676.509055,4322
2677.61015,4473.4
2678.710507,4312.5
2679.810125,4379.6
2680.909006,4307.6
2682.007149,4369.3
2683.104556,4296.7
2684.201226,4549.8
2685.29716,4342.9
2686.392359,4357.2
2687.486822,4305.8
2688.580551,4446
2689.673545,4336.2
2690.765806,4288.5
2691.857334,4485.3
2692.948128,4272
2694.03819,4356.2
2695.12752,4398.1
2696.216119,4383.6
2697.303986,4284
2698.391123,4532.7
2699.477529,4271.9
2700.563206,4298.3
2701.648153,4569.2
2702.732371,4333.7
2703.81586,4436.3
2704.898622,4484.9
2705.980656,4345.9
2707.061963,4358.2
2708.142543,4309.2
2709.222396,4271.9
2710.301524,4626.9
2711.379926,4420
2712.457603,4366
2713.534556,4285.7
2714.610784,4429.4
2715.686289,4330.7
2716.76107,4370.6
2717.835129,4250.9
2718.908465,4381.5
2719.981079,4369.9
2721.052972,4322.4
2722.124143,4242.9
2723.194594,4318.6
2724.264324,4273.6
2725.333335,4326.9
2726.401626,4357
2727.469198,4332.4
2728.536051,4382.2
2729.602187,4369.8
2730.667605,4344.8
2731.732305,4290.3
2732.796289,4399.9
2733.859556,4275.3
2734.922107,4443.8
2735.983943,4302.5
2737.045063,4253.9
2738.105469,4472.1
2739.16516,4252.5
2740.224138,4324.4
2741.282402,4320.8
2742.339953,4240.7
2743.396792,4523.2
2744.452918,4279.9
2745.508333,4265.4
2746.563036,4412.8
2747.617029,4325.5
2748.670311,4291.7
2749.722883,4397.1
2750.774745,4287.6
2751.825899,4269.3
2752.876343,4408
2753.926079,4433.1
2754.975107,4345.6
2756.023428,4384.3
2757.071041,4425.7
2758.117948,4263.8
2759.164149,4569
2760.209643,4320.7
2761.254433,4379.4
2762.298517,4232.7
2763.341897,4296.2
2764.384572,4266
2765.426544,4260.5
2766.467813,4403.9
2767.508378,4366.2
2768.548241,4300.6
2769.587402,4258.5
2770.625862,4275.2
2771.66362,4400.3
2772.700677,4348.3
2773.737034,4273.9
2774.772691,4400.9
2775.807648,4365.2
2776.841907,4339.2
2777.875466,4243.9
2778.908327,4247.9
2779.94049,4248.3
2780.971956,4267.7
2782.002725,4414.8
2783.032797,4304.6
2784.062172,4229.3
2785.090852,4327.9
2786.118836,4624.6
2787.146125,4261.6
2788.17272,4277.6
2789.198621,4363.8
2790.223827,4271.4
2791.24834,4388.3
2792.272161,4273.8
2793.295288,4268.2
2794.317724,4349.4
2795.339467,4284.3
2796.36052,4431.7
2797.380881,4323.2
2798.400552,4289
2799.419533,4403.2
2800.437824,4359.6
2801.455426,4333.7
2802.472339,4241.4
2803.488563,4263.6
2804.504099,4247.3
2805.518948,4457.9
2806.533109,4320.2
2807.546584,4376
2808.559372,4322.8
2809.571474,4345.3
2810.58289,4321.8
2811.593621,4309.5
2812.603667,4347.3
2813.613029,4331.9
2814.621706,4281.1
2815.6297,4283.1
2816.637011,4506.5
2817.643639,4268.5
2818.649584,4347.9
2819.654848,4272.5
2820.65943,4435.2
2821.66333,4558.1
2822.66655,4269.5
2823.669089,4381.3
2824.670948,4270.1
2825.672128,4492.2
2826.672628,4481.6
2827.67245,4238.7
2828.671593,4277.3
2829.670058,4343.1
2830.667846,4331.3
2831.664956,4302.9
2832.661389,4280.8
2833.657146,4302.9
2834.652227,4264.1
2835.646632,4446.8
2836.640362,4391.1
2837.633417,4261.6
2838.625798,4397.4
2839.617505,4257.9
2840.608537,4413.1
2841.598897,4345
2842.588584,4335.2
2843.577598,4326.8
2844.56594,4298.9
2845.553611,4424.2
2846.54061,4412.5
2847.526938,4266.2
2848.512596,4287.9
2849.497583,4680.5
2850.481901,4525.6
2851.46555,4283.6
2852.448529,4378.7
2853.43084,4270.6
2854.412483,4441.1
2855.393458,4274
2856.373766,4246.8
2857.353407,4261.4
2858.332381,4420.6
2859.310689,4890.9
2860.288331,4265
2861.265307,4286.1
2862.241619,4371.3
2863.217266,4286
2864.192248,4462.7
2865.166567,4273.8
2866.140222,4308.8
2867.113215,4485.7
2868.085544,4358.7
2869.057211,4377.2
2870.028216,4264.8
2870.99856,4340.9
2871.968242,4471.7
2872.937264,4390.5
2873.905625,4322.6
2874.873326,4418.6
2875.840368,4394.2
2876.80675,4417.4
2877.772474,4269.4
2878.737539,4399.9
2879.701945,4246.5
2880.665695,4398.9
2881.628786,4328.4
2882.591221,4262.4
2883.553,4357.7
2884.514122,4339
2885.474588,4314
2886.434399,4443.8
2887.393555,4305.7
2888.352056,4371.4
2889.309903,4356.4
2890.267096,4349.2
2891.223636,4359.3
2892.179522,4564.2
2893.134756,4328.1
2894.089337,4302.3
2895.043266,4306.8
2895.996544,4351.3
2896.949171,4427
2897.901146,4319.8
2898.852471,4330.9
2899.803146,4543
2900.753172,4446.3
2901.702548,4342.4
2902.651275,4323.5
2903.599353,4312.9
2904.546783,4267.9
2905.493566,4240.4
2906.439701,4740.5
2907.385188,4273
2908.330029,4294.8
2909.274224,4285
2910.217773,4483.4
2911.160676,4285.6
2912.102934,4390.3
2913.044547,4426.7
2913.985516,4354.3
2914.925841,4413.2
2915.865522,4287.1
2916.804559,4271.2
2917.742954,4310.3
2918.680706,4260
2919.617815,4443.5
2920.554283,4330.6
2921.49011,4301.4
2922.425295,4254
2923.35984,4393.1
2924.293744,4369.1
2925.227008,4272.4
2926.159633,4332.5
2927.091618,4455.9
2928.022964,4575.7
2928.953672,4359.6
2929.883742,4422.4
2930.813174,4364.3
2931.741969,4297.8
2932.670126,4337.2
2933.597647,4329
2934.524532,4545.3
2935.45078,4298.8
2936.376393,4376.2
2937.301371,4417.6
2938.225714,4435.3
2939.149423,4418.6
2940.072497,4370.3
2940.994938,4411.6
2941.916745,4356.3
2942.83792,4454.5
2943.758461,4287.1
2944.678371,4418.8
2945.597648,4316.9
2946.516294,4294.1
2947.434309,4350.1
2948.351693,4340.3
2949.268446,4501
2950.18457,4421.3
2951.100063,4394.7
2952.014928,4417.6
2952.929163,4422
2953.84277,4282.4
2954.755748,4293.4
2955.668099,4293.9
2956.579822,4374.4
2957.490917,4303.4
2958.401386,4306.1
2959.311229,4351.5
2960.220445,4296.5
2961.129036,4345.3
2962.037001,4339.8
2962.944341,4311
2963.851057,4292.5
2964.757148,4422.6
2965.662615,4300.7
2966.567459,4440.7
2967.471679,4400.7
2968.375277,4392
2969.278252,4324.2
2970.180604,4341.3
2971.082336,4419
2971.983445,4349.5
2972.883934,4374.6
2973.783802,4368.9
2974.683049,4428
2975.581676,4317.4
2976.479684,4377.1
2977.377073,4304.5
2978.273842,4333.5
2979.169993,4417.4
2980.065526,4398.3
2980.960441,4383.6
2981.854738,4380.1
2982.748418,4327.4
2983.641481,4327.6
2984.533928,4426.4
2985.425759,4433.5
2986.316974,4796.2
2987.207573,4335.6
2988.097558,4324.5
2988.986927,4456.8
2989.875683,4332.7
2990.763824,4415
2991.651352,4348.2
2992.538266,4471.3
2993.424568,4327.5
2994.310257,4372.9
2995.195334,4330.4
2996.079798,4443.7
2996.963652,4326.9
2997.846894,4549
2998.729525,4443.2
2999.611546,4330.1
3000.492956,4398.8
3001.373757,4500.9
3002.253949,4429
3003.133531,4355.4
3004.012504,4496.9
3004.89087,4369
3005.768627,4348.5
3006.645776,4318.2
3007.522318,4372.6
3008.398253,4331
3009.273582,4382.7
3010.148304,4385.1
3011.02242,4522.6
3011.89593,4382.4
3012.768835,4488.4
3013.641136,4593.8
3014.512831,4384.2
3015.383923,4332.1
3016.25441,4324
3017.124294,4312.2
3017.993575,4527.5
3018.862253,4351.3
3019.730329,4465.4
3020.597802,4430.6
3021.464673,4322.8
3022.330943,4399.1
3023.196612,4395.4
3024.06168,4335.9
3024.926148,4352.1
3025.790015,4363.9
3026.653283,4441.6
3027.515951,4462.8
3028.37802,4398.2
3029.23949,4457.8
3030.100362,4307.2
3030.960636,4414.6
3031.820312,4336.4
3032.679391,4408.7
3033.537873,4354.3
3034.395758,4378.5
3035.253047,4362.2
3036.109739,4411.9
3036.965836,4454
3037.821338,4418.4
3038.676245,4353.5
3039.530557,4529.4
3040.384274,4454.7
3041.237398,4414.4
3042.089928,4459.8
3042.941865,4531
3043.793208,4324.9
3044.643959,4348.4
3045.494118,4297.7
3046.343685,4419
3047.19266,4427.5
3048.041044,4479
3048.888837,4445
3049.736039,4358.5
3050.582651,4353.9
3051.428673,4356.7
3052.274105,4360.5
3053.118948,4503.9
3053.963202,4412.8
3054.806868,4349
3055.649945,4416.7
3056.492435,4382.1
3057.334336,4351.3
3058.175651,4364.9
3059.016378,4448.5
3059.856519,4377.7
3060.696074,4419.6
3061.535042,4393.3
3062.373425,4610.6
3063.211223,4350.7
3064.048436,4679.2
3064.885064,4493.1
3065.721108,4452.2
3066.556568,4390.1
3067.391444,4389
3068.225737,4484.5
3069.059447,4411.6
3069.892575,4425.4
3070.72512,4428.5
3071.557083,4398.3
3072.388464,4385.7
3073.219264,4908.7
3074.049484,4493.3
3074.879122,4361.3
3075.70818,4502.7
3076.536658,4493.1
3077.364557,4485.5
3078.191876,4372.4
3079.018616,4337.3
3079.844778,4389.7
3080.670361,4337.7
3081.495366,4466.8
3082.319793,4426.8
3083.143643,4425.7
3083.966916,4447.1
3084.789612,4401.2
3085.611732,4506.8
3086.433276,4423.9
3087.254244,4511.3
3088.074636,4393.3
3088.894454,4399.4
3089.713697,4401
3090.532365,4483
3091.350459,4403.9
3092.167979,4407.3
3092.984926,4446.2
3093.8013,4406.7
3094.617101,4469.4
3095.432329,4468.7
3096.246985,4466.8
3097.061069,4511.9
3097.874582,4462.3
3098.687524,4421.6
3099.499894,4577.9
3100.311694,4526.4
3101.122924,4380
3101.933584,4522.6
3102.743675,4546.6
3103.553196,4397.6
3104.362148,4489.7
3105.170531,4683.7
3105.978346,4763.1
3106.785593,4412.8
3107.592273,4486
3108.398385,4416.1
3109.20393,4422
3110.008908,4482.3
3110.81332,4458.4
3111.617166,4554.4
3112.420446,4531.1
3113.22316,4414.5
3114.02531,4436.2
3114.826894,4885.4
3115.627915,4454.4
3116.428371,4450
3117.228263,4449.8
3118.027591,4432.4
3118.826357,4483.4
3119.624559,4438.5
3120.422199,4504.1
3121.219277,4439.4
3122.015792,4489.2
3122.811747,4407.9
3123.607139,4479.8
3124.401971,4567
3125.196242,4499.6
3125.989953,4551.9
3126.783103,4439
3127.575694,4429.5
3128.367725,4463.9
3129.159198,4533.7
3129.950111,4437.5
3130.740466,4522.1
3131.530263,4472.2
3132.319502,4437.2
3133.108183,4434.2
3133.896308,4445.1
3134.683875,4483.8
3135.470886,4481.2
3136.25734,4495
3137.043238,4567.1
3137.828581,4518.9
3138.613368,4453.1
3139.397601,4453.9
3140.181278,4548.8
3140.964401,4487.3
3141.74697,4463.1
3142.528986,4503.7
3143.310447,4448.5
3144.091356,4512.8
3144.871711,4560.4
3145.651515,4416
3146.430765,4495
3147.209464,4532.3
3147.987612,4502.8
3148.765208,4441.3
3149.542253,4417.3
3150.318747,4542.5
3151.094691,4462
3151.870085,4475.5
3152.644929,4613.9
3153.419223,4504.4
3154.192968,4488.1
3154.966165,4567.1
3155.738813,4444
3156.510913,4517.6
3157.282464,4532.8
3158.053469,4595.5
3158.823925,4661.6
3159.593835,4505.3
3160.363198,4538.4
3161.132015,4488.4
3161.900286,4534.2
3162.66801,4540.7
3163.43519,4634.7
3164.201824,4485.7
3164.967913,4454.9
3165.733458,4486.1
3166.498458,4663.6
3167.262915,4496.1
3168.026828,4541.1
3168.790197,4512.3
3169.553024,4602.5
3170.315307,4562.7
3171.077049,4477.6
3171.838248,4641.7
3172.598905,4506.1
3173.359021,4594
3174.118595,4504.6
3174.877629,4571.9
3175.636122,4502
3176.394075,4481.8
3177.151487,4512.7
3177.90836,4508.7
3178.664694,4557.3
3179.420488,4585.8
3180.175744,4560.1
3180.930461,4529.6
3181.68464,4588.7
3182.438281,4515
3183.191384,4496.6
3183.94395,4584.5
3184.695979,4513.3
3185.447471,4533.4
3186.198427,4482.4
3186.948847,4512.2
3187.698731,4531.8
3188.448079,4569.1
3189.196893,4612.7
3189.945171,4609
3190.692915,4551.6
3191.440124,4662.3
3192.186799,4571.8
3192.932941,4537
3193.678549,4518.6
3194.423624,4543.4
3195.168166,4726.9
3195.912176,4579.6
3196.655654,4580.7
3197.398599,4550.9
3198.141013,4614.4
3198.882896,4538.7
3199.624247,4582.8
3200.365068,4513.7
3201.105358,4617.3
3201.845118,4557.5
3202.584348,4545.5
3203.323049,4509.4
3204.06122,4566.9
3204.798863,4576.7
3205.535977,4544.1
3206.272562,4554.2
3207.008619,4576.3
3207.744148,4554.2
3208.47915,4550.7
3209.213625,4545.7
3209.947573,4717.5
3210.680994,4570
3211.413889,4539.1
3212.146257,4642.2
3212.8781,4606.1
3213.609418,4558.2
3214.34021,4631.9
3215.070478,4652.7
3215.800221,4553.1
3216.529439,4657.7
3217.258134,4549.9
3217.986305,4602
3218.713952,4543.2
3219.441076,4582.4
3220.167678,4641.4
3220.893757,4658.4
3221.619313,4571.4
3222.344348,4569.6
3223.068861,4562
3223.792853,4549.6
3224.516323,4535.9
3225.239273,4577.6
3225.961702,4638.5
3226.683611,4635.1
3227.405001,4648.7
3228.12587,4582.8
3228.84622,4579.5
3229.566051,4575.9
3230.285363,4624.5
3231.004157,4585.8
3231.722432,4626.7
3232.44019,4574.3
3233.15743,4625.4
3233.874153,5003.1
3234.590358,4541.6
