57.42448267,12266
60.29131328,14549
63.15612404,13005
66.01891664,13330
68.87969276,13312
71.73845411,18676
74.59520236,15660
77.44993921,17206
80.30266633,26886
83.15338541,65380
86.00209813,65535
88.84880617,65535
91.6935112,65535
94.53621489,65535
97.37691893,65535
100.215625,65535
103.0523347,65535
105.8870498,65535
108.7197719,65535
111.5505026,65535
114.3792437,65535
117.2059968,65535
120.0307636,65535
122.8535457,65535
125.6743447,65535
128.4931623,65535
131.3100002,65535
134.1248601,65535
136.9377435,65535
139.7486521,65535
142.5575875,65535
145.3645515,65535
148.1695455,65535
150.9725714,65535
153.7736306,65535
156.5727249,65535
159.3698559,65535
162.1650252,65535
164.9582344,65535
167.7494851,65535
170.5387791,65535
173.3261178,65535
176.111503,65535
178.8949363,65535
181.6764192,65535
184.4559533,65535
187.2335404,65535
190.009182,65535
192.7828797,65535
195.5546352,65535
198.32445,65535
201.0923257,65535
203.8582639,65535
206.6222664,65535
209.3843345,65535
212.1444701,65535
214.9026745,65535
217.6589495,65535
220.4132966,65535
223.1657175,65535
225.9162137,65535
228.6647868,65535
231.4114383,65535
234.15617,65535
236.8989832,65535
239.6398798,65535
242.3788611,65535
245.1159289,65535
247.8510846,65535
250.5843298,65535
253.3156662,65535
256.0450953,65535
258.7726186,65535
261.4982377,65535
264.2219542,65535
266.9437697,65535
269.6636857,65535
272.3817038,65535
275.0978255,65535
277.8120524,65535
280.524386,65535
283.234828,65535
285.9433797,65535
288.6500429,65535
291.3548191,65535
294.0577097,65535
296.7587164,65535
299.4578407,65535
302.1550841,65535
304.8504482,65535
307.5439344,65535
310.2355445,65535
312.9252798,65535
315.6131419,65535
318.2991323,65535
320.9832527,65535
323.6655044,65535
326.3458891,65535
329.0244082,65535
331.7010633,65535
334.3758559,65535
337.0487875,65535
339.7198596,65535
342.3890738,65535
345.0564316,65535
347.7219345,65535
350.3855839,65535
353.0473815,65535
355.7073287,65535
358.365427,65535
361.0216779,65535
363.676083,65535
366.3286437,65535
368.9793615,65535
371.6282379,65535
374.2752745,65535
376.9204727,65535
379.5638341,65535
382.20536,65535
384.8450521,65535
387.4829117,65535
390.1189404,65535
392.7531397,65535
395.385511,65535
398.0160559,65535
400.6447758,65535
403.2716721,65535
405.8967465,65535
408.5200003,65535
411.141435,65535
413.7610521,65535
416.3788531,65535
418.9948394,65535
421.6090125,65535
424.2213739,65535
426.831925,65535
429.4406673,65535
432.0476023,65535
434.6527314,65535
437.2560561,65535
439.8575778,65535
442.4572981,65535
445.0552182,65535
447.6513398,65535
450.2456643,65535
452.838193,65535
455.4289275,65535
458.0178692,65535
460.6050195,65535
463.1903799,65535
465.7739518,65535
468.3557368,65535
470.9357361,65535
473.5139512,65535
476.0903837,65535
478.6650348,65535
481.2379061,65535
483.808999,65535
486.3783149,65535
488.9458552,65535
491.5116214,65535
494.0756149,65535
496.637837,65535
499.1982893,65535
501.7569732,65535
504.31389,65535
506.8690412,65535
509.4224283,65535
511.9740525,65535
514.5239154,65535
517.0720183,65535
519.6183627,65535
522.1629499,65535
524.7057814,65535
527.2468585,65535
529.7861828,65535
532.3237555,65535
534.8595781,65535
537.3936519,65535
539.9259785,65535
542.4565591,65535
544.9853952,65535
547.5124881,65535
550.0378393,65535
552.5614502,65535
555.0833221,65535
557.6034563,65535
560.1218544,65535
562.6385177,65535
565.1534476,65535
567.6666454,65535
570.1781125,65535
572.6878504,65535
575.1958603,65535
577.7021437,65535
580.206702,65535
582.7095365,65535
585.2106485,65535
587.7100395,65535
590.2077108,65535
592.7036638,65535
595.1978999,65535
597.6904204,65535
600.1812266,65535
602.67032,65535
605.1577019,65535
607.6433737,65535
610.1273367,65535
612.6095922,65535
615.0901417,65535
617.5689865,65535
620.0461278,65535
622.5215672,65535
624.9953059,65535
627.4673453,65535
629.9376867,65535
632.4063314,65535
634.8732809,65535
637.3385364,65535
639.8020993,65535
642.2639709,65535
644.7241525,65535
647.1826456,65535
649.6394514,65535
652.0945713,65535
654.5480066,65535
656.9997586,65535
659.4498286,65535
661.8982181,65535
664.3449282,65535
666.7899604,65535
669.2333159,65535
671.6749961,65535
674.1150023,65535
676.5533358,65535
678.9899979,65535
681.42499,65535
683.8583134,65535
686.2899693,65535
688.7199592,65535
691.1482842,65535
693.5749457,65535
695.999945,65535
698.4232835,65535
700.8449624,65535
703.264983,65535
705.6833467,65535
708.1000547,65535
710.5151083,65535
712.9285088,65535
715.3402576,65535
717.7503559,65535
720.158805,65535
722.5656063,65535
724.9707609,65535
727.3742702,65535
729.7761355,65535
732.1763581,65535
734.5749392,65535
736.9718802,65535
739.3671822,65535
741.7608467,65535
744.1528749,65535
746.543268,65535
748.9320274,65535
751.3191543,65535
753.70465,65535
756.0885158,65535
758.4707529,65535
760.8513626,65535
763.2303462,65535
765.6077049,65535
767.98344,65535
770.3575529,65535
772.7300447,65535
775.1009167,65535
777.4701702,65535
779.8378064,65535
782.2038266,65535
784.568232,65535
786.931024,65535
789.2922037,65535
791.6517725,65535
794.0097315,65535
796.366082,65535
798.7208253,65535
801.0739627,65535
803.4254953,65535
805.7754244,65535
808.1237513,65535
810.4704772,65535
812.8156033,65535
815.159131,65535
817.5010613,65535
819.8413957,65535
822.1801352,65535
824.5172812,65535
826.8528349,65535
829.1867974,65535
831.5191702,65535
833.8499542,65535
836.1791509,65535
838.5067615,65535
840.832787,65535
843.1572289,65535
845.4800883,65535
847.8013664,65535
850.1210645,65535
852.4391837,65535
854.7557254,65535
857.0706907,65535
859.3840808,65535
861.6958969,65535
864.0061403,65535
866.3148122,65535
868.6219138,65535
870.9274462,65535
873.2314108,65535
875.5338087,65535
877.8346411,65535
880.1339093,65535
882.4316144,65535
884.7277576,65535
887.0223402,65535
889.3153633,65535
891.6068282,65535
893.896736,65535
896.1850879,65535
898.4718852,65535
900.757129,65535
903.0408205,65535
905.3229609,65535
907.6035515,65535
909.8825933,65535
912.1600876,65535
914.4360356,65535
916.7104385,65535
918.9832974,65535
921.2546135,65535
923.524388,65535
925.7926222,65535
928.059317,65535
930.3244739,65535
932.5880939,65535
934.8501782,65535
937.1107279,65535
939.3697443,65535
941.6272286,65535
943.8831818,65535
946.1376052,65535
948.3905,65535
950.6418672,65535
952.8917082,65535
955.1400239,65535
957.3868157,65535
959.6320847,65535
961.875832,65535
964.1180587,65535
966.3587662,65535
968.5979554,65535
970.8356276,65535
973.0717839,65535
975.3064255,65535
977.5395536,65535
979.7711692,65535
982.0012736,65535
984.2298678,65535
986.4569531,65535
988.6825306,65535
990.9066014,65535
993.1291667,65535
995.3502276,65535
997.5697853,65535
999.7878409,65535
1002.004396,65535
1004.21945,65535
1006.433007,65535
1008.645065,65535
1010.855627,65535
1013.064694,65535
1015.272267,65535
1017.478347,65535
1019.682935,65535
1021.886032,65535
1024.08764,65535
1026.287759,65535
1028.486391,65535
1030.683537,65535
1032.879197,65535
1035.073374,65535
1037.266068,65535
1039.45728,65535
1041.647011,65535
1043.835263,65535
1046.022036,65535
1048.207333,65535
1050.391153,65535
1052.573498,65535
1054.754369,65535
1056.933768,65535
1059.111694,65535
1061.288151,65535
1063.463137,65535
1065.636656,65535
1067.808707,65535
1069.979292,65535
1072.148412,65535
1074.316068,65535
1076.482261,65535
1078.646992,65535
1080.810263,65535
1082.972075,65535
1085.132427,65535
1087.291323,65535
1089.448762,65535
1091.604746,65535
1093.759277,65535
1095.912354,65535
1098.063979,65048
1100.214154,65535
1102.362878,65535
1104.510155,65339
1106.655983,65535
1108.800366,65535
1110.943303,65089
1113.084796,64365
1115.224845,64283
1117.363453,64811
1119.500619,64468
1121.636346,64956
1123.770633,65533
1125.903483,63734
1128.034896,64004
1130.164874,64482
1132.293417,63856
1134.420527,65058
1136.546204,63378
1138.67045,63356
1140.793265,60868
1142.914652,61034
1145.03461,61496
1147.153141,62480
1149.270246,61845
1151.385927,61269
1153.500183,62660
1155.613017,62580
1157.724429,62516
1159.83442,62182
1161.942992,61682
1164.050145,63323
1166.15588,63166
1168.260199,62095
1170.363103,64311
1172.464592,63536
1174.564668,61921
1176.663332,64507
1178.760585,64835
1180.856427,64370
1182.950861,62536
1185.043886,62413
1187.135505,65535
1189.225717,61335
1191.314525,62277
1193.401928,60554
1195.487929,62069
1197.572528,61066
1199.655727,61408
1201.737526,60219
1203.817926,58976
1205.896928,59620
1207.974534,59472
1210.050744,59145
1212.12556,61158
1214.198982,59535
1216.271012,60370
1218.341651,58217
1220.410899,58424
1222.478758,58194
1224.545228,57964
1226.610311,57440
1228.674008,57906
1230.736319,58539
1232.797247,57886
1234.856791,58251
1236.914953,58375
1238.971734,59116
1241.027134,58957
1243.081156,57788
1245.1338,55887
1247.185066,56094
1249.234956,57631
1251.283471,57100
1253.330613,58014
1255.376381,55925
1257.420777,55690
1259.463802,58533
1261.505458,57234
1263.545744,58107
1265.584662,58132
1267.622213,58939
1269.658399,56469
1271.693219,58358
1273.726675,57154
1275.758769,57680
1277.7895,56592
1279.818871,55389
1281.846881,54791
1283.873533,57130
1285.898827,56279
1287.922764,56790
1289.945344,55334
1291.96657,55855
1293.986442,56977
1296.004961,57400
1298.022128,59641
1300.037944,59987
1302.05241,61282
1304.065527,62954
1306.077296,60233
1308.087718,63157
1310.096794,59934
1312.104524,59017
1314.110911,60305
1316.115955,58256
1318.119656,55191
1320.122017,55047
1322.123037,54699
1324.122718,55738
1326.121061,54026
1328.118067,53453
1330.113736,55454
1332.10807,55883
1334.10107,54993
1336.092737,54669
1338.083071,56071
1340.072074,53466
1342.059746,54749
1344.046089,54551
1346.031104,55254
1348.014791,56313
1349.997152,55645
1351.978187,55570
1353.957897,56804
1355.936284,58072
1357.913348,58951
1359.889091,61674
1361.863513,60097
1363.836615,60297
1365.808398,58501
1367.778863,59598
1369.748012,54321
1371.715844,53665
1373.682362,55364
1375.647565,52060
1377.611456,51094
1379.574034,52380
1381.535301,53862
1383.495258,52423
1385.453906,51401
1387.411245,54405
1389.367277,50851
1391.322003,50770
1393.275423,50013
1395.227538,49532
1397.17835,49310
1399.12786,48841
1401.076067,49298
1403.022974,50181
1404.968581,49365
1406.912889,49387
1408.8559,50323
1410.797613,50268
1412.73803,50135
1414.677153,48623
1416.61498,49976
1418.551515,47879
1420.486758,48452
1422.420709,51407
1424.353369,47357
1426.28474,48991
1428.214823,47633
1430.143618,48052
1432.071126,48005
1433.997348,47606
1435.922286,47766
1437.845939,47920
1439.76831,47632
1441.689398,47180
1443.609205,45892
1445.527732,48871
1447.44498,47907
1449.360949,45993
1451.275641,47736
1453.189056,46017
1455.101196,46128
1457.012061,46616
1458.921652,46582
1460.82997,45077
1462.737016,46383
1464.642791,46263
1466.547296,45602
1468.450531,45487
1470.352499,45594
1472.253199,49518
1474.152632,46986
1476.0508,46402
1477.947703,47700
1479.843342,46254
1481.737719,46959
1483.630833,45120
1485.522686,44910
1487.413279,46431
1489.302613,46023
1491.190689,47311
1493.077507,46006
1494.963068,46455
1496.847374,49484
1498.730425,48575
1500.612222,50828
1502.492767,50826
1504.372059,52689
1506.250099,52053
1508.12689,53202
1510.002431,51871
1511.876724,51414
1513.749769,50821
1515.621567,48096
1517.49212,47241
1519.361427,47075
1521.229491,46168
1523.096311,45735
1524.961889,44323
1526.826226,45329
1528.689322,43782
1530.551178,43102
1532.411796,44165
1534.271176,43718
1536.129319,43167
1537.986225,43700
1539.841897,43704
1541.696334,43277
1543.549538,41939
1545.401509,42368
1547.252248,43337
1549.101756,42589
1550.950035,42794
1552.797084,41731
1554.642905,44383
1556.487499,44542
1558.330867,42100
1560.173008,41185
1562.013925,42811
1563.853618,43247
1565.692088,43187
1567.529336,41102
1569.365363,42259
1571.200169,42594
1573.033756,43642
1574.866124,41745
1576.697274,41537
1578.527207,42725
1580.355925,42444
1582.183427,40194
1584.009714,41720
1585.834788,45676
1587.658649,43895
1589.481299,42302
1591.302738,43857
1593.122966,41429
1594.941985,42126
1596.759796,40868
1598.5764,39901
1600.391796,39977
1602.205987,41041
1604.018973,40663
1605.830755,40755
1607.641333,41288
1609.450709,40418
1611.258884,40036
1613.065858,41420
1614.871632,40582
1616.676206,39366
1618.479583,38696
1620.281762,40351
1622.082745,38494
1623.882532,37942
1625.681124,38977
1627.478523,40418
1629.274728,39524
1631.06974,41927
1632.863562,39627
1634.656192,41803
1636.447633,38565
1638.237885,39991
1640.026949,39789
1641.814826,37805
1643.601516,40371
1645.38702,39983
1647.17134,39023
1648.954475,40783
1650.736428,39647
1652.517198,39674
1654.296787,39001
1656.075195,38711
1657.852423,36738
1659.628472,37457
1661.403343,35997
1663.177037,38293
1664.949554,36811
1666.720896,36043
1668.491062,37650
1670.260055,35729
1672.027874,36718
1673.794521,36273
1675.559997,35789
1677.324301,35731
1679.087436,34949
1680.849401,35074
1682.610198,36304
1684.369828,35335
1686.128291,35229
1687.885588,35785
1689.64172,34768
1691.396687,35109
1693.150492,35618
1694.903133,34984
1696.654613,35229
1698.404932,35725
1700.15409,35928
1701.902089,33416
1703.64893,36999
1705.394613,33658
1707.139139,35634
1708.882508,33995
1710.624722,35341
1712.365782,35043
1714.105688,33330
1715.844441,33208
1717.582042,34080
1719.318491,34943
1721.05379,33523
1722.787939,34637
1724.520939,34339
1726.252791,35135
1727.983496,35373
1729.713054,34104
1731.441466,34017
1733.168733,32824
1734.894856,33744
1736.619836,35715
1738.343673,34137
1740.066368,33235
1741.787923,32789
1743.508337,32212
1745.227611,32360
1746.945747,32765
1748.662745,33163
1750.378606,31987
1752.093331,32715
1753.80692,35328
1755.519374,33208
1757.230695,34412
1758.940882,33427
1760.649937,32477
1762.35786,31755
1764.064653,32712
1765.770315,31798
1767.474849,32255
1769.178253,30869
1770.880531,32099
1772.581681,30887
1774.281705,31898
1775.980603,31644
1777.678378,30838
1779.375028,32689
1781.070555,31478
1782.76496,31293
1784.458244,32763
1786.150406,31267
1787.841449,31570
1789.531373,31551
1791.220178,29932
1792.907866,30369
1794.594437,30710
1796.279891,33484
1797.964231,31973
1799.647455,30704
1801.329566,31392
1803.010564,30199
1804.69045,30729
1806.369224,33941
1808.046887,29085
1809.723441,30554
1811.398885,30544
1813.073221,30653
1814.746449,30181
1816.41857,28739
1818.089585,29108
1819.759494,28548
1821.428299,29703
1823.096,29286
1824.762598,28529
1826.428093,28830
1828.092487,28137
1829.75578,29449
1831.417972,29122
1833.079065,29482
1834.73906,32042
1836.397957,29576
1838.055757,27891
1839.71246,29225
1841.368067,28819
1843.02258,29697
1844.675999,27566
1846.328324,28748
1847.979556,27185
1849.629697,27856
1851.278747,28313
1852.926706,26682
1854.573575,27571
1856.219356,27316
1857.864048,28234
1859.507653,28077
1861.150171,27220
1862.791603,29227
1864.43195,27125
1866.071213,27446
1867.709391,28951
1869.346487,28502
1870.982501,30459
1872.617433,28394
1874.251284,26409
1875.884055,26414
1877.515747,27760
1879.14636,26326
1880.775895,26875
1882.404353,26137
1884.031735,27017
1885.658041,26243
1887.283273,25876
1888.90743,26631
1890.530513,26757
1892.152524,26566
1893.773463,27191
1895.39333,28035
1897.012127,26791
1898.629854,25882
1900.246512,28660
1901.862101,27211
1903.476623,27208
1905.090078,26258
1906.702467,28003
1908.31379,25532
1909.924048,26089
1911.533243,25605
1913.141374,25968
1914.748442,27540
1916.354448,27466
1917.959394,26557
1919.563278,28216
1921.166104,26110
1922.767869,27154
1924.368577,27043
1925.968227,26364
1927.56682,26535
1929.164357,27684
1930.760839,24758
1932.356266,25421
1933.950638,25324
1935.543958,26155
1937.136224,28792
1938.727439,24472
1940.317603,26522
1941.906716,24989
1943.494779,27053
1945.081794,24942
1946.667759,26447
1948.252678,25032
1949.836549,25563
1951.419374,24062
1953.001153,25316
1954.581888,24896
1956.161578,23883
1957.740225,24935
1959.317829,25092
1960.894391,25750
1962.469912,23640
1964.044392,23970
1965.617832,24242
1967.190233,23748
1968.761596,25791
1970.33192,23768
1971.901207,24758
1973.469458,23896
1975.036673,23037
1976.602853,23687
1978.167999,23387
1979.732111,22892
1981.29519,23287
1982.857236,23322
1984.418251,23300
1985.978235,26086
1987.537189,22464
1989.095113,22439
1990.652009,23028
1992.207876,22957
1993.762716,27286
1995.316528,23793
1996.869315,23483
1998.421077,22871
1999.971813,22844
2001.521526,23100
2003.070215,23179
2004.617882,23319
2006.164526,23079
2007.710149,22571
2009.254752,21854
2010.798334,22309
2012.340898,22446
2013.882442,21918
2015.422969,23414
2016.962479,24071
2018.500972,22646
2020.038449,23618
2021.57491,22408
2023.110358,21711
2024.644791,22315
2026.178211,22427
2027.710619,22821
2029.242015,21483
2030.7724,22636
2032.301774,22253
2033.830138,21175
2035.357493,22044
2036.88384,21175
2038.409179,21928
2039.933511,21912
2041.456836,22365
2042.979156,22402
2044.50047,22579
2046.02078,22303
2047.540086,21460
2049.058389,21609
2050.575689,23242
2052.091988,20729
2053.607285,22150
2055.121582,21772
2056.63488,22640
2058.147178,20921
2059.658477,21163
2061.168779,20875
2062.678083,20280
2064.186391,21430
2065.693703,22549
2067.20002,22469
2068.705343,20926
2070.209671,21756
2071.713007,21240
2073.215349,20661
2074.7167,21248
2076.21706,21769
2077.716429,20855
2079.214808,21643
2080.712197,20399
2082.208599,21543
2083.704012,19837
2085.198437,20895
2086.691876,20736
2088.18433,19953
2089.675797,20942
2091.16628,21899
2092.655779,21116
2094.144294,21541
2095.631827,21572
2097.118377,21742
2098.603946,19808
2100.088534,22602
2101.572142,20076
2103.054771,22256
2104.53642,20157
2106.017091,20644
2107.496785,20256
2108.975501,20170
2110.453242,20007
2111.930006,21366
2113.405795,19663
2114.88061,20524
2116.354452,19805
2117.82732,19778
2119.299215,20262
2120.770139,20444
2122.240092,19378
2123.709074,19954
2125.177086,20065
2126.644128,20076
2128.110202,20673
2129.575308,18889
2131.039447,18602
2132.502618,18888
2133.964824,19520
2135.426064,21046
2136.886339,19427
2138.34565,18113
2139.803998,19010
2141.261382,18787
2142.717804,18154
2144.173264,18580
2145.627763,19787
2147.081302,19106
2148.533881,19559
2149.985501,19617
2151.436162,18233
2152.885865,18707
2154.334611,18968
2155.7824,18510
2157.229233,19200
2158.67511,17860
2160.120033,18351
2161.564001,17882
2163.007016,18975
2164.449078,18576
2165.890188,18766
2167.330346,18258
2168.769552,18850
2170.207809,18958
2171.645115,19486
2173.081472,19051
2174.51688,18147
2175.951341,19542
2177.384854,17890
2178.81742,18840
2180.24904,18140
2181.679715,19350
2183.109445,19541
2184.53823,18607
2185.966071,20100
2187.39297,17840
2188.818926,22409
2190.24394,17661
2191.668013,18139
2193.091145,19268
2194.513337,18576
2195.93459,16882
2197.354904,17661
2198.77428,16851
2200.192718,18429
2201.610219,17320
2203.026784,25877
2204.442413,18592
2205.857107,21175
2207.270866,17622
2208.683691,17285
2210.095583,16756
2211.506543,16826
2212.91657,18909
2214.325665,17306
2215.73383,16384
2217.141064,18065
2218.547369,16467
2219.952744,18185
2221.357191,17850
2222.76071,17048
2224.163301,17844
2225.564966,16262
2226.965705,17699
2228.365518,17133
2229.764406,18514
2231.16237,17496
2232.55941,17067
2233.955527,19200
2235.350722,16662
2236.744994,16747
2238.138345,16276
2239.530775,16784
2240.922286,18037
2242.312876,16788
2243.702548,16578
2245.091301,17117
2246.479136,16330
2247.866054,17329
2249.252056,16203
2250.637142,15494
2252.021312,16435
2253.404567,16719
2254.786908,18815
2256.168335,15486
2257.548849,15741
2258.928451,16767
2260.30714,16342
2261.684919,16266
2263.061786,16929
2264.437744,17614
2265.812792,17096
2267.186931,15858
2268.560161,17593
2269.932484,15522
2271.303899,15744
2272.674408,16500
2274.04401,16630
2275.412708,16624
2276.7805,15801
2278.147388,16301
2279.513372,14920
2280.878453,17819
2282.242631,17177
2283.605907,14859
2284.968282,17516
2286.329756,16564
2287.69033,14839
2289.050004,17126
2290.408779,15623
2291.766655,15712
2293.123633,14942
2294.479714,16231
2295.834898,18715
2297.189186,14790
2298.542578,15435
2299.895075,15213
2301.246677,14591
2302.597386,15002
2303.9472,16050
2305.296123,14748
2306.644152,14590
2307.991291,14519
2309.337538,15841
2310.682894,15597
2312.02736,15219
2313.370937,16010
2314.713626,15170
2316.055425,15342
2317.396337,14388
2318.736362,16504
2320.075501,15351
2321.413753,16374
2322.75112,14151
2324.087602,15583
2325.423199,15428
2326.757913,16281
2328.091744,15550
2329.424692,14898
2330.756757,14865
2332.087942,14169
2333.418245,14817
2334.747668,14053
2336.076211,14697
2337.403874,15424
2338.730659,16026
2340.056566,15609
2341.381595,14140
2342.705747,14815
2344.029023,14583
2345.351423,14821
2346.672947,16168
2347.993596,15349
2349.313371,14535
2350.632273,15683
2351.950301,14616
2353.267456,15355
2354.58374,16896
2355.899152,15002
2357.213693,14586
2358.527363,17574
2359.840164,14373
2361.152095,15425
2362.463158,15645
2363.773352,14418
2365.082679,14382
2366.391138,13810
2367.698731,14442
2369.005458,13418
2370.31132,14227
2371.616316,14521
2372.920448,14372
2374.223717,14289
2375.526122,13480
2376.827664,14898
2378.128344,14072
2379.428163,14133
2380.72712,20357
2382.025217,14920
2383.322453,14218
2384.61883,15542
2385.914349,13966
2387.209008,13631
2388.50281,14493
2389.795755,14826
2391.087843,15414
2392.379075,13231
2393.669451,14088
2394.958971,14633
2396.247637,15187
2397.535449,14484
2398.822408,15191
2400.108513,13740
2401.393766,13659
2402.678167,14598
2403.961717,14429
2405.244416,15150
2406.526264,12989
2407.807263,13833
2409.087412,14424
2410.366713,14760
2411.645165,14786
2412.92277,14835
2414.199527,13445
2415.475438,13677
2416.750503,13556
2418.024723,12632
2419.298097,13366
2420.570627,13339
2421.842313,15649
2423.113155,12571
2424.383155,12821
2425.652312,13355
2426.920627,12723
2428.188101,13537
2429.454735,12746
2430.720528,15394
2431.985481,16013
2433.249595,12611
2434.51287,14378
2435.775307,13163
2437.036907,13115
2438.297669,13240
2439.557595,15719
2440.816685,12414
2442.074939,14312
2443.332358,13325
2444.588943,14190
2445.844694,13845
2447.099611,14165
2448.353695,13059
2449.606947,14730
2450.859367,12419
2452.110956,13090
2453.361714,12840
2454.611641,18019
2455.860739,14930
2457.109007,12284
2458.356446,13675
2459.603058,12677
2460.848841,13090
2462.093797,12075
2463.337927,12895
2464.58123,13405
2465.823708,11782
2467.06536,13041
2468.306188,12898
2469.546191,13539
2470.785371,11946
2472.023728,12641
2473.261262,12682
2474.497974,12653
2475.733864,12589
2476.968934,12487
2478.203183,12691
2479.436611,12609
2480.66922,13550
2481.901011,13334
2483.131982,13794
2484.362136,12572
2485.591472,12432
2486.81999,13725
2488.047693,11836
2489.274579,13817
2490.50065,11825
2491.725906,12870
2492.950348,13145
2494.173975,13264
2495.396789,12404
2496.61879,12558
2497.839979,13946
2499.060355,12498
2500.27992,12767
2501.498675,12330
2502.716618,12624
2503.933752,12973
2505.150076,12352
2506.365592,12396
2507.580298,12362
2508.794197,12454
2510.007289,11559
2511.219573,11517
2512.431051,11541
2513.641723,12176
2514.85159,12433
2516.060652,11420
2517.268909,11555
2518.476362,12338
2519.683012,12895
2520.888858,12833
2522.093902,13158
2523.298145,12777
2524.501585,12468
2525.704225,12877
2526.906064,12927
2528.107104,11359
2529.307343,12094
2530.506784,12195
2531.705426,12010
2532.90327,15736
2534.100317,11823
2535.296566,17804
2536.492019,11445
2537.686676,12609
2538.880537,15250
2540.073603,11720
2541.265875,11968
2542.457352,12798
2543.648036,11315
2544.837927,11394
2546.027025,11228
2547.21533,12523
2548.402845,11287
2549.589567,11849
2550.7755,11335
2551.960642,11837
2553.144994,11217
2554.328557,11123
2555.511331,10957
2556.693317,12868
2557.874515,11794
2559.054926,11737
2560.23455,12362
2561.413387,12246
2562.591439,12746
2563.768705,10940
2564.945187,11037
2566.120884,12651
2567.295797,13688
2568.469926,10914
2569.643273,11764
2570.815837,13750
2571.987619,12469
2573.158619,11460
2574.328839,11575
2575.498278,11605
2576.666936,12054
2577.834815,12366
2579.001915,11604
2580.168236,12453
2581.333779,11427
2582.498545,12054
2583.662533,13094
2584.825744,11177
2585.988179,11625
2587.149838,12664
2588.310721,10830
2589.47083,11432
2590.630165,12245
2591.788725,11743
2592.946512,12077
2594.103526,11594
2595.259767,10692
2596.415237,11254
2597.569934,12329
2598.723861,11461
2599.877017,12107
2601.029403,11037
2602.181019,11441
2603.331866,11180
2604.481944,12122
2605.631254,11602
2606.779796,11291
2607.92757,11905
2609.074578,12117
2610.220819,10661
2611.366295,11538
2612.511004,14610
2613.654949,12314
2614.798129,10749
2615.940545,11475
2617.082198,12573
2618.223087,10491
2619.363214,10981
2620.502578,11821
2621.64118,13499
2622.779022,10653
2623.916102,11516
2625.052422,10472
2626.187982,10524
2627.322782,10447
2628.456824,12637
2629.590107,11317
2630.722631,10573
2631.854399,11256
2632.985409,11267
2634.115662,11336
2635.245159,12635
2636.3739,12570
2637.501886,11177
2638.629117,10810
2639.755593,10441
2640.881316,11993
2642.006285,12570
2643.130501,10954
2644.253964,10630
2645.376676,10488
2646.498635,11475
2647.619843,11211
2648.740301,10556
2649.860008,11953
2650.978965,11856
2652.097173,11896
2653.214632,10534
2654.331343,11849
2655.447305,11020
2656.56252,10999
2657.676987,11246
2658.790708,11779
2659.903683,12502
2661.015911,11081
2662.127395,11226
2663.238133,11106
2664.348127,10423
2665.457377,11233
2666.565884,10523
2667.673647,11423
2668.780667,10955
2669.886946,10960
2670.992483,10480
2672.097278,11692
2673.201332,11764
2674.304646,10314
2675.40722,10880
2676.509055,10220
2677.61015,12211
2678.710507,10373
2679.810125,10994
2680.909006,10214
2682.007149,11071
2683.104556,10164
2684.201226,13074
2685.29716,10642
2686.392359,11034
2687.486822,10757
2688.580551,11751
2689.673545,10769
2690.765806,10134
2691.857334,12318
2692.948128,10039
2694.03819,10874
2695.12752,11384
2696.216119,10963
2697.303986,10120
2698.391123,12901
2699.477529,10196
2700.563206,10163
2701.648153,13539
2702.732371,10817
2703.81586,11881
2704.898622,12674
2705.980656,10894
2707.061963,10708
2708.142543,10632
2709.222396,10036
2710.301524,14092
2711.379926,11600
2712.457603,11005
2713.534556,10058
2714.610784,12174
2715.686289,10611
2716.76107,11384
2717.835129,10279
2718.908465,11548
2719.981079,11365
2721.052972,10430
2722.124143,9917
2723.194594,10569
2724.264324,10717
2725.333335,10627
2726.401626,11261
2727.469198,10480
2728.536051,11174
2729.602187,10707
2730.667605,10581
2731.732305,10674
2732.796289,11684
2733.859556,10217
2734.922107,11347
2735.983943,10542
2737.045063,9952
2738.105469,12182
2739.16516,9790
2740.224138,10465
2741.282402,10595
2742.339953,9763
2743.396792,12531
2744.452918,10303
2745.508333,9730
2746.563036,11640
2747.617029,10612
2748.670311,10508
2749.722883,11448
2750.774745,9756
2751.825899,9872
2752.876343,11181
2753.926079,12063
2754.975107,10620
2756.023428,11253
2757.071041,11523
2758.117948,9838
2759.164149,12875
2760.209643,10377
2761.254433,11075
2762.298517,9695
2763.341897,9826
2764.384572,9701
2765.426544,9807
2766.467813,11376
2767.508378,10604
2768.548241,10168
2769.587402,9863
2770.625862,9805
2771.66362,11063
2772.700677,10633
2773.737034,9747
2774.772691,11259
2775.807648,10906
2776.841907,10469
2777.875466,9805
2778.908327,9703
2779.94049,9796
2780.971956,9591
2782.002725,11236
2783.032797,10416
2784.062172,9583
2785.090852,10367
2786.118836,13805
2787.146125,9805
2788.17272,9856
2789.198621,10950
2790.223827,9729
2791.24834,11167
2792.272161,9843
2793.295288,9814
2794.317724,10494
2795.339467,9725
2796.36052,11393
2797.380881,10530
2798.400552,9898
2799.419533,11268
2800.437824,10823
2801.455426,10565
2802.472339,9752
2803.488563,9691
2804.504099,9534
2805.518948,11767
2806.533109,10437
2807.546584,11199
2808.559372,10423
2809.571474,10611
2810.58289,10558
2811.593621,10499
2812.603667,10443
2813.613029,10583
2814.621706,9721
2815.6297,9673
2816.637011,12352
2817.643639,9707
2818.649584,10462
2819.654848,9697
2820.65943,11116
2821.66333,13097
2822.66655,9680
2823.669089,11055
2824.670948,9617
2825.672128,12138
2826.672628,11981
2827.67245,9726
2828.671593,9768
2829.670058,10367
2830.667846,10527
2831.664956,10334
2832.661389,9574
2833.657146,10037
2834.652227,9727
2835.646632,11179
2836.640362,11307
2837.633417,9910
2838.625798,11579
2839.617505,9617
2840.608537,11130
2841.598897,10682
2842.588584,10490
2843.577598,10452
2844.56594,9930
2845.553611,11015
2846.54061,11093
2847.526938,9695
2848.512596,9576
2849.497583,14274
2850.481901,12466
2851.46555,9672
2852.448529,10242
2853.43084,9786
2854.412483,11747
2855.393458,9620
2856.373766,9622
2857.353407,9644
2858.332381,11100
2859.310689,17154
2860.288331,9725
2861.265307,9560
2862.241619,11074
2863.217266,9697
2864.192248,11981
2865.166567,9547
2866.140222,10294
2867.113215,12015
2868.085544,10428
2869.057211,10823
2870.028216,9681
2870.99856,10552
2871.968242,12210
2872.937264,10874
2873.905625,9987
2874.873326,11097
2875.840368,10766
2876.80675,11338
2877.772474,9640
2878.737539,11372
2879.701945,9636
2880.665695,11126
2881.628786,10346
2882.591221,9662
2883.553,10488
2884.514122,10407
2885.474588,10486
2886.434399,11118
2887.393555,10368
2888.352056,10697
2889.309903,10649
2890.267096,10401
2891.223636,10528
2892.179522,13142
2893.134756,10388
2894.089337,9743
2895.043266,9934
2895.996544,9958
2896.949171,11071
2897.901146,10171
2898.852471,10597
2899.803146,13034
2900.753172,11416
2901.702548,10516
2902.651275,10555
2903.599353,9893
2904.546783,9554
2905.493566,9519
2906.439701,14838
2907.385188,9572
2908.330029,9613
2909.274224,9858
2910.217773,12012
2911.160676,9790
2912.102934,11106
2913.044547,11409
2913.985516,10465
2914.925841,11127
2915.865522,9623
2916.804559,9832
2917.742954,10170
2918.680706,9653
2919.617815,11618
2920.554283,10444
2921.49011,10038
2922.425295,9768
2923.35984,11283
2924.293744,10489
2925.227008,9848
2926.159633,9981
2927.091618,11541
2928.022964,12837
2928.953672,10630
2929.883742,11574
2930.813174,10523
2931.741969,9822
2932.670126,10369
2933.597647,9950
2934.524532,11092
2935.45078,9735
2936.376393,10392
2937.301371,11231
2938.225714,10953
2939.149423,11047
2940.072497,10267
2940.994938,11231
2941.916745,10515
2942.83792,11366
2943.758461,9755
2944.678371,11480
2945.597648,9855
2946.516294,9765
2947.434309,10619
2948.351693,10440
2949.268446,11827
2950.18457,11202
2951.100063,10757
2952.014928,11331
2952.929163,11061
2953.84277,9685
2954.755748,9783
2955.668099,9708
2956.579822,10504
2957.490917,9947
2958.401386,9874
2959.311229,10561
2960.220445,9855
2961.129036,10019
2962.037001,9804
2962.944341,9937
2963.851057,9808
2964.757148,11483
2965.662615,9757
2966.567459,11532
2967.471679,10514
2968.375277,10738
2969.278252,9920
2970.180604,10217
2971.082336,11402
2971.983445,10604
2972.883934,10637
2973.783802,10707
2974.683049,11426
2975.581676,9921
2976.479684,10691
2977.377073,9949
2978.273842,9760
2979.169993,11451
2980.065526,10494
2980.960441,10623
2981.854738,10665
2982.748418,9977
2983.641481,9906
2984.533928,10845
2985.425759,10830
2986.316974,15755
2987.207573,9964
2988.097558,9909
2988.986927,11367
2989.875683,10081
2990.763824,10734
2991.651352,9980
2992.538266,11383
2993.424568,10087
2994.310257,10674
2995.195334,9990
2996.079798,11489
2996.963652,9928
2997.846894,12335
2998.729525,11191
2999.611546,9964
3000.492956,10563
3001.373757,12409
3002.253949,11451
3003.133531,10081
3004.012504,11605
3004.89087,10468
3005.768627,10393
3006.645776,9966
3007.522318,10797
3008.398253,10031
3009.273582,10574
3010.148304,10747
3011.02242,12475
3011.89593,10733
3012.768835,12197
3013.641136,13342
3014.512831,11030
3015.383923,10181
3016.25441,10189
3017.124294,10078
3017.993575,12073
3018.862253,10131
3019.730329,11590
3020.597802,11383
3021.464673,10061
3022.330943,10871
3023.196612,10679
3024.06168,10011
3024.926148,10208
3025.790015,10179
3026.653283,11513
3027.515951,11681
3028.37802,10874
3029.23949,10970
3030.100362,10112
3030.960636,10876
3031.820312,10060
3032.679391,11017
3033.537873,10433
3034.395758,10186
3035.253047,10255
3036.109739,11065
3036.965836,11194
3037.821338,10856
3038.676245,10393
3039.530557,12025
3040.384274,11678
3041.237398,11093
3042.089928,11161
3042.941865,12292
3043.793208,10412
3044.643959,10115
3045.494118,10196
3046.343685,10571
3047.19266,11152
3048.041044,11684
3048.888837,11212
3049.736039,10158
3050.582651,10333
3051.428673,10157
3052.274105,10311
3053.118948,11633
3053.963202,10887
3054.806868,10275
3055.649945,11045
3056.492435,10542
3057.334336,10241
3058.175651,10359
3059.016378,11088
3059.856519,10233
3060.696074,11093
3061.535042,10529
3062.373425,12714
3063.211223,10285
3064.048436,14220
3064.885064,11869
3065.721108,11006
3066.556568,10414
3067.391444,10526
3068.225737,12000
3069.059447,10937
3069.892575,11156
3070.72512,11008
3071.557083,10484
3072.388464,10704
3073.219264,16440
3074.049484,11423
3074.879122,10318
3075.70818,11974
3076.536658,11461
3077.364557,12021
3078.191876,10522
3079.018616,10377
3079.844778,10352
3080.670361,10377
3081.495366,11214
3082.319793,11432
3083.143643,11187
3083.966916,11187
3084.789612,10394
3085.611732,12049
3086.433276,10620
3087.254244,11508
3088.074636,10530
3088.894454,10481
3089.713697,10577
3090.532365,11309
3091.350459,10548
3092.167979,10741
3092.984926,10479
3093.8013,10452
3094.617101,11138
3095.432329,11399
3096.246985,11309
3097.061069,11559
3097.874582,11415
3098.687524,10637
3099.499894,12023
3100.311694,11792
3101.122924,10583
3101.933584,11902
3102.743675,11993
3103.553196,10441
3104.362148,11321
3105.170531,13619
3105.978346,14905
3106.785593,10860
3107.592273,10930
3108.398385,10764
3109.20393,10706
3110.008908,11417
3110.81332,10643
3111.617166,12415
3112.420446,11458
3113.22316,10785
3114.02531,10852
3114.826894,15607
3115.627915,10942
3116.428371,10613
3117.228263,10677
3118.027591,10869
3118.826357,11442
3119.624559,10757
3120.422199,11481
3121.219277,10810
3122.015792,11649
3122.811747,11015
3123.607139,11021
3124.401971,12263
3125.196242,10856
3125.989953,12321
3126.783103,11007
3127.575694,10880
3128.367725,10956
3129.159198,11901
3129.950111,10905
3130.740466,11858
3131.530263,10879
3132.319502,10981
3133.108183,10919
3133.896308,10958
3134.683875,10990
3135.470886,11062
3136.25734,11750
3137.043238,12105
3137.828581,11760
3138.613368,10951
3139.397601,11026
3140.181278,11836
3140.964401,11162
3141.74697,11142
3142.528986,11646
3143.310447,11063
3144.091356,11894
3144.871711,11931
3145.651515,11074
3146.430765,11338
3147.209464,11937
3147.987612,11193
3148.765208,11269
3149.542253,11039
3150.318747,11864
3151.094691,11250
3151.870085,11118
3152.644929,12681
3153.419223,11148
3154.192968,11303
3154.966165,12294
3155.738813,11096
3156.510913,12119
3157.282464,12044
3158.053469,12776
3158.823925,12901
3159.593835,11282
3160.363198,12088
3161.132015,11769
3161.900286,12042
3162.66801,12030
3163.43519,12769
3164.201824,11253
3164.967913,11207
3165.733458,11331
3166.498458,13093
3167.262915,11448
3168.026828,12238
3168.790197,11347
3169.553024,12662
3170.315307,11868
3171.077049,11440
3171.838248,12821
3172.598905,11387
3173.359021,12151
3174.118595,11432
3174.877629,12396
3175.636122,11380
3176.394075,11743
3177.151487,11466
3177.90836,11738
3178.664694,12258
3179.420488,12304
3180.175744,12324
3180.930461,11521
3181.68464,12187
3182.438281,11571
3183.191384,11507
3183.94395,11894
3184.695979,11690
3185.447471,11578
3186.198427,11565
3186.948847,11620
3187.698731,11604
3188.448079,11435
3189.196893,12508
3189.945171,12182
3190.692915,11766
3191.440124,13297
3192.186799,11740
3192.932941,11614
3193.678549,11830
3194.423624,11683
3195.168166,13734
3195.912176,12390
3196.655654,12411
3197.398599,11716
3198.141013,12409
3198.882896,11586
3199.624247,11707
3200.365068,11586
3201.105358,12384
3201.845118,11645
3202.584348,11633
3203.323049,11782
3204.06122,11763
3204.798863,12218
3205.535977,11673
3206.272562,11852
3207.008619,11792
3207.744148,11617
3208.47915,11674
3209.213625,11629
3209.947573,13771
3210.680994,11697
3211.413889,11810
3212.146257,12446
3212.8781,12514
3213.609418,11923
3214.34021,12734
3215.070478,12444
3215.800221,11892
3216.529439,12753
3217.258134,11757
3217.986305,11978
3218.713952,11823
3219.441076,11866
3220.167678,12704
3220.893757,13001
3221.619313,11914
3222.344348,12137
3223.068861,11978
3223.792853,11942
3224.516323,12004
3225.239273,11907
3225.961702,12946
3226.683611,12725
3227.405001,12787
3228.12587,12023
3228.84622,12067
3229.566051,12066
3230.285363,12783
3231.004157,12172
3231.722432,12289
3232.44019,12181
3233.15743,12923
3233.874153,16753
3234.590358,12068
