57.42448267,8206
60.29131328,9594
63.15612404,8763
66.01891664,9135
68.87969276,9418
71.73845411,12481
74.59520236,11867
77.44993921,15500
80.30266633,29313
83.15338541,65535
86.00209813,65535
88.84880617,65535
91.6935112,65535
94.53621489,65535
97.37691893,65535
100.215625,65535
103.0523347,65535
105.8870498,65535
108.7197719,65535
111.5505026,65535
114.3792437,65535
117.2059968,65535
120.0307636,65535
122.8535457,65535
125.6743447,65535
128.4931623,65535
131.3100002,65535
134.1248601,65518
136.9377435,62291
139.7486521,60952
142.5575875,59948
145.3645515,58418
148.1695455,58202
150.9725714,57850
153.7736306,58102
156.5727249,57302
159.3698559,57559
162.1650252,57530
164.9582344,57984
167.7494851,57820
170.5387791,57501
173.3261178,57427
176.111503,57930
178.8949363,57309
181.6764192,56349
184.4559533,56110
187.2335404,55969
190.009182,56433
192.7828797,56668
195.5546352,56200
198.32445,55587
201.0923257,56744
203.8582639,55453
206.6222664,55851
209.3843345,55964
212.1444701,55565
214.9026745,56131
217.6589495,56898
220.4132966,56316
223.1657175,55960
225.9162137,55728
228.6647868,56329
231.4114383,55939
234.15617,56751
236.8989832,56238
239.6398798,56383
242.3788611,56437
245.1159289,55339
247.8510846,55668
250.5843298,55313
253.3156662,56396
256.0450953,56985
258.7726186,54368
261.4982377,54619
264.2219542,54164
266.9437697,54974
269.6636857,53965
272.3817038,53739
275.0978255,52481
277.8120524,52998
280.524386,52624
283.234828,52246
285.9433797,53086
288.6500429,52088
291.3548191,52958
294.0577097,52324
296.7587164,51972
299.4578407,51711
302.1550841,52392
304.8504482,52880
307.5439344,52674
310.2355445,53031
312.9252798,52445
315.6131419,53006
318.2991323,52365
320.9832527,53283
323.6655044,53099
326.3458891,53944
329.0244082,53731
331.7010633,53079
334.3758559,53067
337.0487875,53288
339.7198596,52701
342.3890738,53596
345.0564316,54203
347.7219345,54134
350.3855839,54698
353.0473815,54502
355.7073287,54943
358.365427,55262
361.0216779,55578
363.676083,56471
366.3286437,57048
368.9793615,56061
371.6282379,57104
374.2752745,57420
376.9204727,58341
379.5638341,57870
382.20536,58025
384.8450521,58217
387.4829117,58211
390.1189404,58792
392.7531397,57983
395.385511,57771
398.0160559,59153
400.6447758,59209
403.2716721,57732
405.8967465,58182
408.5200003,58104
411.141435,58253
413.7610521,56115
416.3788531,55758
418.9948394,55164
421.6090125,56108
424.2213739,56803
426.831925,55736
429.4406673,54912
432.0476023,54508
434.6527314,55746
437.2560561,54182
439.8575778,54579
442.4572981,54762
445.0552182,54577
447.6513398,54881
450.2456643,55146
452.838193,53871
455.4289275,54182
458.0178692,54501
460.6050195,55007
463.1903799,54871
465.7739518,53910
468.3557368,54639
470.9357361,54967
473.5139512,54427
476.0903837,54035
478.6650348,54648
481.2379061,54549
483.808999,55264
486.3783149,55878
488.9458552,55409
491.5116214,56249
494.0756149,56458
496.637837,56298
499.1982893,56201
501.7569732,56759
504.31389,58029
506.8690412,57987
509.4224283,57559
511.9740525,57947
514.5239154,57947
517.0720183,58148
519.6183627,57213
522.1629499,57867
524.7057814,57553
527.2468585,57305
529.7861828,56941
532.3237555,57439
534.8595781,57107
537.3936519,58078
539.9259785,57694
542.4565591,57639
544.9853952,57704
547.5124881,58896
550.0378393,57031
552.5614502,57462
555.0833221,57433
557.6034563,56851
560.1218544,56690
562.6385177,57222
565.1534476,55922
567.6666454,56628
570.1781125,55753
572.6878504,55849
575.1958603,56015
577.7021437,56901
580.206702,55543
582.7095365,54717
585.2106485,54804
587.7100395,54388
590.2077108,54114
592.7036638,53695
595.1978999,54175
597.6904204,55293
600.1812266,55238
602.67032,55911
605.1577019,57003
607.6433737,56393
610.1273367,55215
612.6095922,55674
615.0901417,55272
617.5689865,55714
620.0461278,54884
622.5215672,55137
624.9953059,54778
627.4673453,54292
629.9376867,55295
632.4063314,54706
634.8732809,55222
637.3385364,56155
639.8020993,56825
642.2639709,54969
644.7241525,54806
647.1826456,54644
649.6394514,55732
652.0945713,55004
654.5480066,56326
656.9997586,55225
659.4498286,55346
661.8982181,56014
664.3449282,54850
666.7899604,54845
669.2333159,55859
671.6749961,54523
674.1150023,57102
676.5533358,53361
678.9899979,53284
681.42499,54351
683.8583134,53000
686.2899693,53786
688.7199592,53124
691.1482842,54676
693.5749457,52424
695.999945,52557
698.4232835,51303
700.8449624,52906
703.264983,51311
705.6833467,50816
708.1000547,54173
710.5151083,51639
712.9285088,51295
715.3402576,51217
717.7503559,50204
720.158805,50791
722.5656063,51293
724.9707609,51116
727.3742702,50390
729.7761355,50588
732.1763581,50647
734.5749392,50615
736.9718802,50899
739.3671822,50751
741.7608467,50014
744.1528749,50192
746.543268,50194
748.9320274,50989
751.3191543,50023
753.70465,50654
756.0885158,50259
758.4707529,50562
760.8513626,53115
763.2303462,51419
765.6077049,51574
767.98344,53617
770.3575529,51443
772.7300447,51945
775.1009167,51719
777.4701702,51985
779.8378064,50264
782.2038266,50707
784.568232,50685
786.931024,50231
789.2922037,51615
791.6517725,49435
794.0097315,50008
796.366082,49769
798.7208253,51095
801.0739627,49956
803.4254953,50306
805.7754244,48886
808.1237513,48662
810.4704772,48954
812.8156033,49366
815.159131,49665
817.5010613,49370
819.8413957,50249
822.1801352,48619
824.5172812,47804
826.8528349,48620
829.1867974,48162
831.5191702,48071
833.8499542,48267
836.1791509,48137
838.5067615,47594
840.832787,47910
843.1572289,47829
845.4800883,47871
847.8013664,47770
850.1210645,47120
852.4391837,46963
854.7557254,46863
857.0706907,46110
859.3840808,46319
861.6958969,46702
864.0061403,45290
866.3148122,45634
868.6219138,46660
870.9274462,45721
873.2314108,45763
875.5338087,45033
877.8346411,45915
880.1339093,45640
882.4316144,45343
884.7277576,45351
887.0223402,45396
889.3153633,45906
891.6068282,45678
893.896736,45157
896.1850879,44631
898.4718852,45766
900.757129,44582
903.0408205,44767
905.3229609,44988
907.6035515,44927
909.8825933,45412
912.1600876,46014
914.4360356,44412
916.7104385,44414
918.9832974,44688
921.2546135,44504
923.524388,45546
925.7926222,44721
928.059317,45575
930.3244739,45667
932.5880939,45830
934.8501782,47326
937.1107279,44451
939.3697443,44305
941.6272286,45376
943.8831818,44618
946.1376052,46211
948.3905,45091
950.6418672,44514
952.8917082,44687
955.1400239,45314
957.3868157,43917
959.6320847,44260
961.875832,43226
964.1180587,43409
966.3587662,43159
968.5979554,44039
970.8356276,43771
973.0717839,43679
975.3064255,43292
977.5395536,43452
979.7711692,42761
982.0012736,42851
984.2298678,42640
986.4569531,41893
988.6825306,41963
990.9066014,42190
993.1291667,41691
995.3502276,42256
997.5697853,41484
999.7878409,41318
1002.004396,40436
1004.21945,40834
1006.433007,41382
1008.645065,40727
1010.855627,41139
1013.064694,40997
1015.272267,40411
1017.478347,40533
1019.682935,41327
1021.886032,41433
1024.08764,41084
1026.287759,39668
1028.486391,40029
1030.683537,40146
1032.879197,39930
1035.073374,40165
1037.266068,40304
1039.45728,40744
1041.647011,39607
1043.835263,39388
1046.022036,40958
1048.207333,39919
1050.391153,39787
1052.573498,39970
1054.754369,40892
1056.933768,40339
1059.111694,40404
1061.288151,39881
1063.463137,39330
1065.636656,40052
1067.808707,39712
1069.979292,40173
1072.148412,39806
1074.316068,40402
1076.482261,40079
1078.646992,39536
1080.810263,39875
1082.972075,40803
1085.132427,39445
1087.291323,40799
1089.448762,40082
1091.604746,39491
1093.759277,39398
1095.912354,39207
1098.063979,38735
1100.214154,39123
1102.362878,39625
1104.510155,38943
1106.655983,38998
1108.800366,39473
1110.943303,38821
1113.084796,38179
1115.224845,38226
1117.363453,38845
1119.500619,38043
1121.636346,38305
1123.770633,38838
1125.903483,37926
1128.034896,37616
1130.164874,38181
1132.293417,37661
1134.420527,38014
1136.546204,37422
1138.67045,37290
1140.793265,36179
1142.914652,36263
1145.03461,36352
1147.153141,36984
1149.270246,36553
1151.385927,36282
1153.500183,36770
1155.613017,37004
1157.724429,36764
1159.83442,36642
1161.942992,36508
1164.050145,37287
1166.15588,37398
1168.260199,36894
1170.363103,38626
1172.464592,37588
1174.564668,36223
1176.663332,38205
1178.760585,38127
1180.856427,37892
1182.950861,37084
1185.043886,36869
1187.135505,38362
1189.225717,36011
1191.314525,36614
1193.401928,35701
1195.487929,36236
1197.572528,35896
1199.655727,36046
1201.737526,35368
1203.817926,34551
1205.896928,34844
1207.974534,34981
1210.050744,34588
1212.12556,35857
1214.198982,35047
1216.271012,35476
1218.341651,34330
1220.410899,34659
1222.478758,34101
1224.545228,33900
1226.610311,33782
1228.674008,34023
1230.736319,33991
1232.797247,33959
1234.856791,33974
1236.914953,34441
1238.971734,34524
1241.027134,34872
1243.081156,33942
1245.1338,32934
1247.185066,33150
1249.234956,33989
1251.283471,33643
1253.330613,34004
1255.376381,33007
1257.420777,33032
1259.463802,34140
1261.505458,33675
1263.545744,34002
1265.584662,33822
1267.622213,34368
1269.658399,33267
1271.693219,34165
1273.726675,33591
1275.758769,33465
1277.7895,33156
1279.818871,32871
1281.846881,31915
1283.873533,33806
1285.898827,33056
1287.922764,33585
1289.945344,32727
1291.96657,33434
1293.986442,34103
1296.004961,33801
1298.022128,34971
1300.037944,35602
1302.05241,36262
1304.065527,37024
1306.077296,35398
1308.087718,37190
1310.096794,35315
1312.104524,34835
1314.110911,35210
1316.115955,33965
1318.119656,32231
1320.122017,32420
1322.123037,32046
1324.122718,32782
1326.121061,31822
1328.118067,31423
1330.113736,32530
1332.10807,32564
1334.10107,31854
1336.092737,31931
1338.083071,32722
1340.072074,31374
1342.059746,32078
1344.046089,32320
1346.031104,32474
1348.014791,33192
1349.997152,33026
1351.978187,32996
1353.957897,33801
1355.936284,34652
1357.913348,35348
1359.889091,36577
1361.863513,35574
1363.836615,35582
1365.808398,34387
1367.778863,34392
1369.748012,31897
1371.715844,31198
1373.682362,32446
1375.647565,30556
1377.611456,30095
1379.574034,30653
1381.535301,31290
1383.495258,30642
1385.453906,30075
1387.411245,31482
1389.367277,29683
1391.322003,29579
1393.275423,29029
1395.227538,28846
1397.17835,28890
1399.12786,28523
1401.076067,29059
1403.022974,29140
1404.968581,29141
1406.912889,28997
1408.8559,29184
1410.797613,29404
1412.73803,28998
1414.677153,28323
1416.61498,28956
1418.551515,27977
1420.486758,28669
1422.420709,29765
1424.353369,27833
1426.28474,28582
1428.214823,28065
1430.143618,28344
1432.071126,27797
1433.997348,27825
1435.922286,27891
1437.845939,27733
1439.76831,27406
1441.689398,27717
1443.609205,27012
1445.527732,28400
1447.44498,27845
1449.360949,26731
1451.275641,27948
1453.189056,27043
1455.101196,27245
1457.012061,27021
1458.921652,27316
1460.82997,26534
1462.737016,27296
1464.642791,27224
1466.547296,26626
1468.450531,26798
1470.352499,26552
1472.253199,28694
1474.152632,27413
1476.0508,27050
1477.947703,27638
1479.843342,27095
1481.737719,27420
1483.630833,26391
1485.522686,26423
1487.413279,27149
1489.302613,27113
1491.190689,27554
1493.077507,27384
1494.963068,27592
1496.847374,29395
1498.730425,28666
1500.612222,30194
1502.492767,30279
1504.372059,31414
1506.250099,30909
1508.12689,31201
1510.002431,30845
1511.876724,30080
1513.749769,29874
1515.621567,28043
1517.49212,27628
1519.361427,27347
1521.229491,26902
1523.096311,26677
1524.961889,26159
1526.826226,26684
1528.689322,25611
1530.551178,25479
1532.411796,25827
1534.271176,25814
1536.129319,25140
1537.986225,25457
1539.841897,25485
1541.696334,25290
1543.549538,24935
1545.401509,24769
1547.252248,25530
1549.101756,24951
1550.950035,24943
1552.797084,24393
1554.642905,25643
1556.487499,25649
1558.330867,24686
1560.173008,24377
1562.013925,25002
1563.853618,25201
1565.692088,25452
1567.529336,24225
1569.365363,24936
1571.200169,24883
1573.033756,25619
1574.866124,24623
1576.697274,24442
1578.527207,24873
1580.355925,24744
1582.183427,23751
1584.009714,24376
1585.834788,26361
1587.658649,25305
1589.481299,24685
1591.302738,25297
1593.122966,24163
1594.941985,24550
1596.759796,23881
1598.5764,23502
1600.391796,23337
1602.205987,23784
1604.018973,23630
1605.830755,23737
1607.641333,24026
1609.450709,23646
1611.258884,23396
1613.065858,23810
1614.871632,23915
1616.676206,22920
1618.479583,23017
1620.281762,23608
1622.082745,22458
1623.882532,22333
1625.681124,22745
1627.478523,23334
1629.274728,23154
1631.06974,24212
1632.863562,23094
1634.656192,24576
1636.447633,22718
1638.237885,23397
1640.026949,23029
1641.814826,22842
1643.601516,23630
1645.38702,23293
1647.17134,22868
1648.954475,23693
1650.736428,23180
1652.517198,23148
1654.296787,22760
1656.075195,22711
1657.852423,21897
1659.628472,21855
1661.403343,21277
1663.177037,22468
1664.949554,21579
1666.720896,21656
1668.491062,21655
1670.260055,21115
1672.027874,21570
1673.794521,21457
1675.559997,21204
1677.324301,21109
1679.087436,20602
1680.849401,20714
1682.610198,21151
1684.369828,20801
1686.128291,20748
1687.885588,20972
1689.64172,20668
1691.396687,20572
1693.150492,20837
1694.903133,20637
1696.654613,20689
1698.404932,20943
1700.15409,20817
1701.902089,19952
1703.64893,21310
1705.394613,19676
1707.139139,20461
1708.882508,19835
1710.624722,20306
1712.365782,20434
1714.105688,19395
1715.844441,19612
1717.582042,19700
1719.318491,20299
1721.05379,19564
1722.787939,20110
1724.520939,19584
1726.252791,20464
1727.983496,20464
1729.713054,19790
1731.441466,19771
1733.168733,19306
1734.894856,19779
1736.619836,20672
1738.343673,19887
1740.066368,19483
1741.787923,19025
1743.508337,18890
1745.227611,19132
1746.945747,19139
1748.662745,19316
1750.378606,18754
1752.093331,19138
1753.80692,20375
1755.519374,19157
1757.230695,19796
1758.940882,19508
1760.649937,19047
1762.35786,18711
1764.064653,18839
1765.770315,18873
1767.474849,18806
1769.178253,18145
1770.880531,18570
1772.581681,18226
1774.281705,18446
1775.980603,18444
1777.678378,18321
1779.375028,18976
1781.070555,18457
1782.76496,18597
1784.458244,19020
1786.150406,18283
1787.841449,18216
1789.531373,18548
1791.220178,17683
1792.907866,17759
1794.594437,18037
1796.279891,19196
1797.964231,18496
1799.647455,17800
1801.329566,18237
1803.010564,17759
1804.69045,18002
1806.369224,19507
1808.046887,17206
1809.723441,17954
1811.398885,17668
1813.073221,17652
1814.746449,17548
1816.41857,16767
1818.089585,17141
1819.759494,16636
1821.428299,17444
1823.096,17038
1824.762598,16501
1826.428093,17060
1828.092487,16578
1829.75578,17333
1831.417972,16927
1833.079065,17054
1834.73906,18450
1836.397957,17169
1838.055757,16554
1839.71246,16901
1841.368067,16770
1843.02258,17236
1844.675999,16328
1846.328324,16714
1847.979556,16272
1849.629697,16223
1851.278747,16653
1852.926706,15859
1854.573575,16158
1856.219356,16059
1857.864048,16386
1859.507653,16559
1861.150171,16012
1862.791603,17129
1864.43195,15798
1866.071213,15875
1867.709391,16796
1869.346487,16340
1870.982501,17384
1872.617433,16637
1874.251284,15669
1875.884055,15561
1877.515747,16349
1879.14636,15588
1880.775895,15978
1882.404353,15399
1884.031735,15979
1885.658041,15625
1887.283273,15557
1888.90743,15644
1890.530513,15892
1892.152524,15524
1893.773463,15758
1895.39333,16241
1897.012127,15690
1898.629854,15231
1900.246512,16578
1901.862101,15960
1903.476623,15746
1905.090078,15370
1906.702467,16190
1908.31379,14895
1909.924048,15445
1911.533243,15296
1913.141374,15297
1914.748442,16044
1916.354448,16007
1917.959394,15754
1919.563278,16365
1921.166104,15207
1922.767869,15723
1924.368577,15646
1925.968227,15343
1927.56682,15650
1929.164357,15986
1930.760839,14781
1932.356266,15114
1933.950638,14981
1935.543958,15504
1937.136224,16579
1938.727439,14472
1940.317603,15460
1941.906716,14718
1943.494779,15684
1945.081794,14622
1946.667759,15415
1948.252678,14552
1949.836549,14811
1951.419374,14244
1953.001153,14845
1954.581888,14588
1956.161578,14097
1957.740225,14693
1959.317829,14755
1960.894391,15113
1962.469912,14044
1964.044392,14147
1965.617832,14102
1967.190233,14036
1968.761596,15003
1970.33192,14137
1971.901207,14583
1973.469458,14008
1975.036673,13652
1976.602853,14080
1978.167999,13796
1979.732111,13636
1981.29519,13951
1982.857236,14101
1984.418251,14014
1985.978235,14983
1987.537189,13403
1989.095113,13455
1990.652009,13486
1992.207876,13786
1993.762716,15688
1995.316528,14141
1996.869315,13870
1998.421077,13629
1999.971813,13590
2001.521526,13793
2003.070215,13825
2004.617882,13766
2006.164526,13653
2007.710149,13613
2009.254752,13176
2010.798334,13274
2012.340898,13276
2013.882442,12900
2015.422969,13948
2016.962479,14109
2018.500972,13337
2020.038449,14101
2021.57491,13246
2023.110358,12921
2024.644791,13175
2026.178211,13049
2027.710619,13428
2029.242015,12768
2030.7724,13397
2032.301774,13251
2033.830138,12643
2035.357493,13043
2036.88384,12604
2038.409179,13001
2039.933511,13096
2041.456836,13242
2042.979156,13108
2044.50047,13262
2046.02078,13096
2047.540086,12881
2049.058389,12874
2050.575689,13473
2052.091988,12324
2053.607285,12993
2055.121582,12847
2056.63488,13400
2058.147178,12367
2059.658477,12663
2061.168779,12364
2062.678083,12335
2064.186391,12636
2065.693703,13457
2067.20002,13454
2068.705343,12536
2070.209671,12869
2071.713007,12618
2073.215349,12490
2074.7167,12571
2076.21706,12781
2077.716429,12365
2079.214808,12795
2080.712197,12191
2082.208599,12924
2083.704012,12033
2085.198437,12533
2086.691876,12237
2088.18433,12021
2089.675797,12390
2091.16628,12858
2092.655779,12465
2094.144294,12711
2095.631827,12698
2097.118377,12819
2098.603946,11973
2100.088534,13198
2101.572142,12014
2103.054771,12938
2104.53642,11909
2106.017091,12352
2107.496785,12081
2108.975501,12242
2110.453242,11878
2111.930006,12477
2113.405795,11724
2114.88061,12101
2116.354452,11804
2117.82732,11878
2119.299215,12075
2120.770139,12068
2122.240092,11550
2123.709074,11966
2125.177086,11968
2126.644128,12110
2128.110202,11930
2129.575308,11381
2131.039447,11174
2132.502618,11476
2133.964824,11637
2135.426064,12524
2136.886339,11594
2138.34565,11017
2139.803998,11325
2141.261382,11352
2142.717804,11088
2144.173264,11286
2145.627763,11810
2147.081302,11311
2148.533881,11662
2149.985501,11705
2151.436162,11062
2152.885865,11015
2154.334611,11436
2155.7824,11164
2157.229233,11439
2158.67511,10725
2160.120033,11125
2161.564001,10796
2163.007016,11432
2164.449078,11179
2165.890188,11349
2167.330346,10970
2168.769552,11148
2170.207809,11267
2171.645115,11412
2173.081472,11609
2174.51688,10864
2175.951341,11412
2177.384854,10715
2178.81742,11301
2180.24904,10908
2181.679715,11613
2183.109445,11605
2184.53823,11241
2185.966071,12001
2187.39297,10743
2188.818926,12784
2190.24394,10731
2191.668013,10974
2193.091145,11491
2194.513337,11139
2195.93459,10274
2197.354904,10637
2198.77428,10260
2200.192718,11225
2201.610219,10706
2203.026784,14529
2204.442413,11116
2205.857107,12244
2207.270866,10623
2208.683691,10588
2210.095583,10180
2211.506543,10346
2212.91657,11153
2214.325665,10588
2215.73383,10032
2217.141064,10844
2218.547369,10051
2219.952744,10875
2221.357191,10687
2222.76071,10426
2224.163301,10667
2225.564966,10043
2226.965705,10706
2228.365518,10279
2229.764406,10953
2231.16237,10550
2232.55941,10442
2233.955527,11315
2235.350722,10277
2236.744994,10132
2238.138345,9898
2239.530775,10364
2240.922286,10976
2242.312876,10246
2243.702548,10015
2245.091301,10609
2246.479136,10055
2247.866054,10546
2249.252056,9958
2250.637142,9779
2252.021312,10051
2253.404567,10169
2254.786908,11025
2256.168335,9603
2257.548849,9607
2258.928451,10312
2260.30714,9977
2261.684919,9810
2263.061786,10326
2264.437744,10642
2265.812792,10219
2267.186931,9796
2268.560161,10440
2269.932484,9631
2271.303899,9729
2272.674408,10057
2274.04401,10234
2275.412708,10134
2276.7805,9576
2278.147388,9972
2279.513372,9282
2280.878453,10753
2282.242631,10344
2283.605907,9267
2284.968282,10635
2286.329756,9947
2287.69033,9289
2289.050004,10417
2290.408779,9512
2291.766655,9540
2293.123633,9234
2294.479714,9888
2295.834898,11127
2297.189186,9265
2298.542578,9491
2299.895075,9490
2301.246677,9091
2302.597386,9182
2303.9472,9599
2305.296123,9214
2306.644152,9016
2307.991291,9146
2309.337538,9841
2310.682894,9620
2312.02736,9413
2313.370937,9751
2314.713626,9395
2316.055425,9441
2317.396337,8936
2318.736362,9961
2320.075501,9343
2321.413753,9975
2322.75112,8855
2324.087602,9530
2325.423199,9547
2326.757913,9915
2328.091744,9592
2329.424692,9193
2330.756757,9077
2332.087942,8837
2333.418245,9270
2334.747668,8856
2336.076211,9103
2337.403874,9573
2338.730659,9717
2340.056566,9714
2341.381595,8751
2342.705747,9213
2344.029023,9045
2345.351423,9123
2346.672947,9740
2347.993596,9403
2349.313371,8960
2350.632273,9460
2351.950301,9131
2353.267456,9517
2354.58374,9910
2355.899152,9183
2357.213693,9098
2358.527363,10319
2359.840164,8953
2361.152095,9422
2362.463158,9567
2363.773352,8801
2365.082679,8977
2366.391138,8584
2367.698731,8876
2369.005458,8437
2370.31132,8834
2371.616316,9036
2372.920448,8918
2374.223717,8962
2375.526122,8490
2376.827664,9197
2378.128344,8714
2379.428163,8777
2380.72712,11727
2382.025217,9060
2383.322453,8721
2384.61883,9354
2385.914349,8686
2387.209008,8568
2388.50281,8918
2389.795755,9080
2391.087843,9526
2392.379075,8330
2393.669451,8767
2394.958971,8881
2396.247637,9286
2397.535449,8903
2398.822408,9305
2400.108513,8500
2401.393766,8602
2402.678167,8941
2403.961717,8951
2405.244416,9246
2406.526264,8328
2407.807263,8561
2409.087412,8920
2410.366713,9136
2411.645165,9114
2412.92277,9116
2414.199527,8323
2415.475438,8477
2416.750503,8572
2418.024723,8017
2419.298097,8417
2420.570627,8341
2421.842313,9468
2423.113155,8150
2424.383155,7995
2425.652312,8341
2426.920627,8033
2428.188101,8451
2429.454735,7989
2430.720528,9326
2431.985481,9643
2433.249595,7981
2434.51287,9010
2435.775307,8315
2437.036907,8341
2438.297669,8328
2439.557595,9560
2440.816685,7958
2442.074939,8926
2443.332358,8358
2444.588943,8912
2445.844694,8623
2447.099611,8732
2448.353695,8230
2449.606947,9235
2450.859367,7989
2452.110956,8213
2453.361714,8255
2454.611641,10657
2455.860739,9029
2457.109007,7996
2458.356446,8572
2459.603058,8304
2460.848841,8349
2462.093797,7812
2463.337927,8134
2464.58123,8326
2465.823708,7758
2467.06536,8175
2468.306188,8237
2469.546191,8494
2470.785371,7706
2472.023728,8291
2473.261262,8185
2474.497974,7986
2475.733864,7898
2476.968934,7874
2478.203183,8137
2479.436611,7988
2480.66922,8532
2481.901011,8295
2483.131982,8563
2484.362136,8036
2485.591472,7947
2486.81999,8540
2488.047693,7643
2489.274579,8520
2490.50065,7611
2491.725906,8302
2492.950348,8223
2494.173975,8265
2495.396789,7971
2496.61879,8006
2497.839979,8624
2499.060355,8046
2500.27992,7967
2501.498675,7868
2502.716618,7994
2503.933752,8165
2505.150076,7825
2506.365592,7897
2507.580298,7873
2508.794197,7926
2510.007289,7474
2511.219573,7420
2512.431051,7548
2513.641723,7733
2514.85159,7832
2516.060652,7493
2517.268909,7350
2518.476362,7837
2519.683012,8165
2520.888858,8114
2522.093902,8210
2523.298145,8083
2524.501585,7951
2525.704225,8112
2526.906064,7980
2528.107104,7388
2529.307343,7789
2530.506784,7742
2531.705426,7645
2532.90327,9524
2534.100317,7774
2535.296566,10370
2536.492019,7371
2537.686676,7978
2538.880537,9195
2540.073603,7470
2541.265875,7726
2542.457352,8014
2543.648036,7282
2544.837927,7322
2546.027025,7320
2547.21533,8014
2548.402845,7276
2549.589567,7577
2550.7755,7260
2551.960642,7561
2553.144994,7230
2554.328557,7225
2555.511331,7197
2556.693317,8018
2557.874515,7468
2559.054926,7554
2560.23455,7873
2561.413387,7849
2562.591439,8175
2563.768705,7175
2564.945187,7242
2566.120884,7938
2567.295797,8548
2568.469926,7176
2569.643273,7506
2570.815837,8457
2571.987619,7823
2573.158619,7548
2574.328839,7471
2575.498278,7390
2576.666936,7773
2577.834815,7886
2579.001915,7436
2580.168236,7833
2581.333779,7467
2582.498545,7638
2583.662533,8136
2584.825744,7272
2585.988179,7548
2587.149838,8017
2588.310721,7076
2589.47083,7440
2590.630165,7743
2591.788725,7604
2592.946512,7749
2594.103526,7505
2595.259767,7132
2596.415237,7407
2597.569934,7881
2598.723861,7444
2599.877017,7842
2601.029403,7144
2602.181019,7433
2603.331866,7225
2604.481944,7703
2605.631254,7611
2606.779796,7465
2607.92757,7573
2609.074578,7721
2610.220819,7131
2611.366295,7412
2612.511004,8774
2613.654949,7828
2614.798129,7000
2615.940545,7308
2617.082198,7935
2618.223087,7019
2619.363214,7244
2620.502578,7590
2621.64118,8258
2622.779022,6979
2623.916102,7466
2625.052422,6882
2626.187982,6930
2627.322782,6963
2628.456824,7923
2629.590107,7392
2630.722631,7065
2631.854399,7350
2632.985409,7230
2634.115662,7453
2635.245159,7880
2636.3739,7893
2637.501886,7320
2638.629117,7096
2639.755593,6879
2640.881316,7646
2642.006285,7885
2643.130501,7140
2644.253964,7056
2645.376676,6849
2646.498635,7548
2647.619843,7278
2648.740301,6934
2649.860008,7715
2650.978965,7580
2652.097173,7557
2653.214632,7022
2654.331343,7553
2655.447305,7172
2656.56252,7210
2657.676987,7416
2658.790708,7638
2659.903683,7956
2661.015911,7265
2662.127395,7164
2663.238133,7172
2664.348127,6876
2665.457377,7358
2666.565884,7101
2667.673647,7449
2668.780667,7201
2669.886946,7174
2670.992483,6920
2672.097278,7481
2673.201332,7576
2674.304646,7013
2675.40722,7244
2676.509055,6787
2677.61015,7799
2678.710507,6973
2679.810125,7242
2680.909006,6864
2682.007149,7310
2683.104556,6854
2684.201226,8074
2685.29716,7128
2686.392359,7146
2687.486822,7085
2688.580551,7542
2689.673545,7092
2690.765806,6802
2691.857334,7824
2692.948128,6715
2694.03819,7217
2695.12752,7412
2696.216119,7178
2697.303986,6767
2698.391123,8233
2699.477529,6758
2700.563206,6757
2701.648153,8353
2702.732371,7078
2703.81586,7551
2704.898622,7902
2705.980656,7168
2707.061963,7068
2708.142543,7084
2709.222396,6684
2710.301524,8614
2711.379926,7516
2712.457603,7210
2713.534556,6795
2714.610784,7667
2715.686289,7059
2716.76107,7278
2717.835129,6774
2718.908465,7379
2719.981079,7425
2721.052972,6984
2722.124143,6680
2723.194594,6980
2724.264324,7050
2725.333335,7004
2726.401626,7266
2727.469198,6984
2728.536051,7315
2729.602187,7062
2730.667605,7053
2731.732305,7008
2732.796289,7447
2733.859556,6738
2734.922107,7362
2735.983943,7003
2737.045063,6626
2738.105469,7714
2739.16516,6623
2740.224138,6927
2741.282402,6920
2742.339953,6614
2743.396792,8004
2744.452918,6841
2745.508333,6650
2746.563036,7388
2747.617029,7025
2748.670311,6891
2749.722883,7394
2750.774745,6576
2751.825899,6666
2752.876343,7269
2753.926079,7702
2754.975107,6894
2756.023428,7314
2757.071041,7474
2758.117948,6565
2759.164149,8099
2760.209643,6984
2761.254433,7309
2762.298517,6563
2763.341897,6624
2764.384572,6586
2765.426544,6620
2766.467813,7227
2767.508378,6955
2768.548241,6718
2769.587402,6638
2770.625862,6598
2771.66362,7228
2772.700677,6987
2773.737034,6545
2774.772691,7229
2775.807648,7101
2776.841907,6943
2777.875466,6596
2778.908327,6570
2779.94049,6498
2780.971956,6532
2782.002725,7259
2783.032797,7002
2784.062172,6532
2785.090852,6936
2786.118836,8541
2787.146125,6644
2788.17272,6631
2789.198621,7194
2790.223827,6530
2791.24834,7225
2792.272161,6596
2793.295288,6638
2794.317724,6885
2795.339467,6634
2796.36052,7483
2797.380881,6932
2798.400552,6614
2799.419533,7391
2800.437824,7125
2801.455426,6905
2802.472339,6584
2803.488563,6514
2804.504099,6480
2805.518948,7619
2806.533109,6863
2807.546584,7296
2808.559372,6901
2809.571474,6927
2810.58289,7020
2811.593621,6922
2812.603667,6858
2813.613029,6818
2814.621706,6611
2815.6297,6526
2816.637011,7838
2817.643639,6552
2818.649584,6964
2819.654848,6661
2820.65943,7202
2821.66333,8230
2822.66655,6508
2823.669089,7217
2824.670948,6595
2825.672128,7694
2826.672628,7616
2827.67245,6635
2828.671593,6477
2829.670058,6881
2830.667846,6858
2831.664956,6889
2832.661389,6532
2833.657146,6737
2834.652227,6556
2835.646632,7259
2836.640362,7328
2837.633417,6640
2838.625798,7421
2839.617505,6564
2840.608537,7247
2841.598897,6988
2842.588584,6908
2843.577598,6932
2844.56594,6650
2845.553611,7200
2846.54061,7252
2847.526938,6606
2848.512596,6491
2849.497583,8760
2850.481901,7788
2851.46555,6552
2852.448529,6997
2853.43084,6611
2854.412483,7457
2855.393458,6581
2856.373766,6527
2857.353407,6570
2858.332381,7336
2859.310689,10017
2860.288331,6641
2861.265307,6607
2862.241619,7304
2863.217266,6574
2864.192248,7556
2865.166567,6585
2866.140222,6848
2867.113215,7630
2868.085544,6964
2869.057211,7131
2870.028216,6576
2870.99856,6965
2871.968242,7713
2872.937264,7231
2873.905625,6730
2874.873326,7246
2875.840368,7011
2876.80675,7303
2877.772474,6587
2878.737539,7371
2879.701945,6474
2880.665695,7329
2881.628786,6887
2882.591221,6552
2883.553,6929
2884.514122,6989
2885.474588,6890
2886.434399,7302
2887.393555,6923
2888.352056,7091
2889.309903,7025
2890.267096,6975
2891.223636,6911
2892.179522,8204
2893.134756,6985
2894.089337,6520
2895.043266,6713
2895.996544,6649
2896.949171,7224
2897.901146,6908
2898.852471,7059
2899.803146,8148
2900.753172,7455
2901.702548,6959
2902.651275,6926
2903.599353,6572
2904.546783,6600
2905.493566,6557
2906.439701,9181
2907.385188,6489
2908.330029,6605
2909.274224,6600
2910.217773,7815
2911.160676,6726
2912.102934,7300
2913.044547,7280
2913.985516,6862
2914.925841,7224
2915.865522,6577
2916.804559,6702
2917.742954,6731
2918.680706,6560
2919.617815,7562
2920.554283,6960
2921.49011,6650
2922.425295,6570
2923.35984,7277
2924.293744,6941
2925.227008,6624
2926.159633,6733
2927.091618,7489
2928.022964,8077
2928.953672,7077
2929.883742,7454
2930.813174,7036
2931.741969,6763
2932.670126,6882
2933.597647,6732
2934.524532,7524
2935.45078,6614
2936.376393,7012
2937.301371,7366
2938.225714,7235
2939.149423,7206
2940.072497,6851
2940.994938,7338
2941.916745,7073
2942.83792,7565
2943.758461,6643
2944.678371,7466
2945.597648,6618
2946.516294,6656
2947.434309,6996
2948.351693,7009
2949.268446,7716
2950.18457,7419
2951.100063,7164
2952.014928,7402
2952.929163,7232
2953.84277,6623
2954.755748,6644
2955.668099,6701
2956.579822,7127
2957.490917,6701
2958.401386,6581
2959.311229,7056
2960.220445,6685
2961.129036,6784
2962.037001,6714
2962.944341,6689
2963.851057,6734
2964.757148,7529
2965.662615,6610
2966.567459,7425
2967.471679,7053
2968.375277,7148
2969.278252,6675
2970.180604,6847
2971.082336,7460
2971.983445,6999
2972.883934,7146
2973.783802,7030
2974.683049,7401
2975.581676,6764
2976.479684,6974
2977.377073,6684
2978.273842,6750
2979.169993,7395
2980.065526,6956
2980.960441,7082
2981.854738,7212
2982.748418,6725
2983.641481,6718
2984.533928,7155
2985.425759,7146
2986.316974,9313
2987.207573,6741
2988.097558,6673
2988.986927,7353
2989.875683,6747
2990.763824,7075
2991.651352,6748
2992.538266,7466
2993.424568,6803
2994.310257,7068
2995.195334,6841
2996.079798,7431
2996.963652,6717
2997.846894,7837
2998.729525,7363
2999.611546,6783
3000.492956,7187
3001.373757,7887
3002.253949,7556
3003.133531,6856
3004.012504,7547
3004.89087,6885
3005.768627,6954
3006.645776,6810
3007.522318,7223
3008.398253,6830
3009.273582,7001
3010.148304,7212
3011.02242,7887
3011.89593,7105
3012.768835,7704
3013.641136,8393
3014.512831,7160
3015.383923,6844
3016.25441,6849
3017.124294,6986
3017.993575,7789
3018.862253,6778
3019.730329,7406
3020.597802,7374
3021.464673,6890
3022.330943,7098
3023.196612,7279
3024.06168,6713
3024.926148,6886
3025.790015,6874
3026.653283,7522
3027.515951,7555
3028.37802,7217
3029.23949,7299
3030.100362,6853
3030.960636,7172
3031.820312,6833
3032.679391,7156
3033.537873,6975
3034.395758,6912
3035.253047,6860
3036.109739,7173
3036.965836,7455
3037.821338,7163
3038.676245,6897
3039.530557,7714
3040.384274,7561
3041.237398,7356
3042.089928,7346
3042.941865,7924
3043.793208,6843
3044.643959,6901
3045.494118,6940
3046.343685,7129
3047.19266,7200
3048.041044,7621
3048.888837,7289
3049.736039,6882
3050.582651,6888
3051.428673,6812
3052.274105,6940
3053.118948,7700
3053.963202,7283
3054.806868,7006
3055.649945,7243
3056.492435,7026
3057.334336,6880
3058.175651,7014
3059.016378,7495
3059.856519,6966
3060.696074,7290
3061.535042,7085
3062.373425,8150
3063.211223,6985
3064.048436,8843
3064.885064,7667
3065.721108,7305
3066.556568,6971
3067.391444,6961
3068.225737,7633
3069.059447,7340
3069.892575,7337
3070.72512,7396
3071.557083,7035
3072.388464,7179
3073.219264,9921
3074.049484,7531
3074.879122,6991
3075.70818,7678
3076.536658,7531
3077.364557,7680
3078.191876,7038
3079.018616,6964
3079.844778,7044
3080.670361,6935
3081.495366,7391
3082.319793,7447
3083.143643,7365
3083.966916,7340
3084.789612,7094
3085.611732,7879
3086.433276,7075
3087.254244,7508
3088.074636,7076
3088.894454,7164
3089.713697,7052
3090.532365,7428
3091.350459,7255
3092.167979,7179
3092.984926,7131
3093.8013,7091
3094.617101,7313
3095.432329,7494
3096.246985,7497
3097.061069,7596
3097.874582,7411
3098.687524,7112
3099.499894,7893
3100.311694,7691
3101.122924,7168
3101.933584,7749
3102.743675,7828
3103.553196,7089
3104.362148,7502
3105.170531,8619
3105.978346,9168
3106.785593,7292
3107.592273,7381
3108.398385,7163
3109.20393,7226
3110.008908,7529
3110.81332,7283
3111.617166,8032
3112.420446,7722
3113.22316,7287
3114.02531,7221
3114.826894,9651
3115.627915,7327
3116.428371,7215
3117.228263,7228
3118.027591,7220
3118.826357,7587
3119.624559,7204
3120.422199,7580
3121.219277,7339
3122.015792,7667
3122.811747,7442
3123.607139,7417
3124.401971,7962
3125.196242,7241
3125.989953,7977
3126.783103,7322
3127.575694,7285
3128.367725,7277
3129.159198,7928
3129.950111,7331
3130.740466,7754
3131.530263,7335
3132.319502,7266
3133.108183,7380
3133.896308,7429
3134.683875,7321
3135.470886,7440
3136.25734,7551
3137.043238,7935
3137.828581,7686
3138.613368,7385
3139.397601,7211
3140.181278,7730
3140.964401,7409
3141.74697,7404
3142.528986,7728
3143.310447,7438
3144.091356,7743
3144.871711,7889
3145.651515,7459
3146.430765,7433
3147.209464,7767
3147.987612,7599
3148.765208,7469
3149.542253,7373
3150.318747,7759
3151.094691,7499
3151.870085,7485
3152.644929,8170
3153.419223,7583
3154.192968,7435
3154.966165,8101
3155.738813,7488
3156.510913,7890
3157.282464,7857
3158.053469,8210
3158.823925,8381
3159.593835,7483
3160.363198,7899
3161.132015,7708
3161.900286,7927
3162.66801,7884
3163.43519,8343
3164.201824,7477
3164.967913,7537
3165.733458,7595
3166.498458,8303
3167.262915,7573
3168.026828,7988
3168.790197,7487
3169.553024,8184
3170.315307,7781
3171.077049,7563
3171.838248,8227
3172.598905,7565
3173.359021,8042
3174.118595,7545
3174.877629,8104
3175.636122,7691
3176.394075,7642
3177.151487,7687
3177.90836,7691
3178.664694,7919
3179.420488,8109
3180.175744,8098
3180.930461,7638
3181.68464,7969
3182.438281,7658
3183.191384,7682
3183.94395,7874
3184.695979,7777
3185.447471,7773
3186.198427,7615
3186.948847,7740
3187.698731,7644
3188.448079,7726
3189.196893,8090
3189.945171,8093
3190.692915,7768
3191.440124,8357
3192.186799,7763
3192.932941,7784
3193.678549,7751
3194.423624,7713
3195.168166,8795
3195.912176,8052
3196.655654,8005
3197.398599,7734
3198.141013,8067
3198.882896,7780
3199.624247,7691
3200.365068,7604
3201.105358,8030
3201.845118,7785
3202.584348,7826
3203.323049,7695
3204.06122,7860
3204.798863,7933
3205.535977,7699
3206.272562,7867
3207.008619,7838
3207.744148,7719
3208.47915,7749
3209.213625,7671
3209.947573,8689
3210.680994,7715
3211.413889,7737
3212.146257,8121
3212.8781,8156
3213.609418,7770
3214.34021,8274
3215.070478,8230
3215.800221,7769
3216.529439,8266
3217.258134,7774
3217.986305,7748
3218.713952,7757
3219.441076,7838
3220.167678,8222
3220.893757,8380
3221.619313,7860
3222.344348,7861
3223.068861,7736
3223.792853,7970
3224.516323,7829
3225.239273,7853
3225.961702,8224
3226.683611,8189
3227.405001,8239
3228.12587,7819
3228.84622,7825
3229.566051,7880
3230.285363,8227
3231.004157,7915
3231.722432,8015
3232.44019,7991
3233.15743,8227
3233.874153,10313
3234.590358,7988
