X-Axis	NPA w/ HMB-1 20x E30 (CRR) (Average 3) (Sub BG)
-3.97831E+02	 2.01680E+02
-3.93106E+02	 1.50218E+02
-3.88385E+02	 1.06332E+02
-3.83668E+02	 5.60264E+01
-3.78954E+02	 8.30176E+00
-3.74244E+02	-1.00859E+01
-3.69537E+02	-4.13086E+00
-3.64833E+02	 2.37236E+01
-3.60133E+02	 1.90859E+01
-3.55437E+02	-8.45898E+00
-3.50744E+02	-2.97227E+01
-3.46054E+02	-1.79580E+01
-3.41368E+02	 5.98535E+00
-3.36685E+02	 2.24121E+00
-3.32006E+02	 3.14346E+01
-3.27330E+02	 8.07100E+01
-3.22658E+02	 4.30732E+01
-3.17989E+02	-4.76377E+01
-3.13323E+02	-5.60254E+01
-3.08661E+02	-2.28467E+01
-3.04002E+02	-3.08867E+01
-2.99347E+02	-2.51113E+01
-2.94695E+02	-3.75000E+00
-2.90047E+02	-1.69746E+01
-2.85402E+02	-1.89619E+01
-2.80760E+02	 2.88564E+01
-2.76122E+02	 5.25498E+01
-2.71487E+02	 4.15752E+01
-2.66855E+02	 4.91406E+00
-2.62227E+02	-4.98105E+01
-2.57603E+02	-3.46729E+01
-2.52981E+02	 2.97910E+01
-2.48363E+02	 3.29844E+01
-2.43749E+02	 5.71484E+00
-2.39138E+02	 1.96582E+01
-2.34530E+02	 6.83594E-01
-2.29925E+02	-3.35869E+01
-2.25324E+02	-2.80615E+01
-2.20726E+02	-2.27656E+01
-2.16132E+02	 5.03613E+00
-2.11541E+02	 2.37295E+01
-2.06953E+02	 7.48145E+00
-2.02369E+02	-2.00752E+01
-1.97788E+02	-3.00283E+01
-1.93210E+02	 1.31670E+01
-1.88636E+02	 4.15322E+01
-1.84065E+02	 1.37256E+01
-1.79497E+02	-5.13086E+00
-1.74932E+02	-2.44375E+01
-1.70371E+02	-4.29922E+01
-1.65814E+02	-2.34609E+01
-1.61259E+02	-1.75957E+01
-1.56708E+02	-3.03711E+01
-1.52160E+02	-6.25586E+00
-1.47615E+02	 3.78867E+01
-1.43074E+02	 4.85020E+01
-1.38536E+02	 5.76953E+01
-1.34001E+02	 5.93887E+01
-1.29470E+02	 2.43320E+01
-1.24942E+02	-2.15625E+01
-1.20417E+02	-2.43555E+01
-1.15896E+02	 4.25977E+00
-1.11377E+02	-1.55469E+01
-1.06862E+02	-4.71846E+01
-1.02350E+02	-4.98164E+01
-9.78419E+01	-5.29512E+01
-9.33366E+01	-3.21123E+01
-8.88346E+01	 1.68809E+01
-8.43359E+01	 1.89590E+01
-7.98404E+01	-8.57910E+00
-7.53481E+01	 8.05664E-01
-7.08591E+01	-2.33711E+01
-6.63733E+01	-3.59014E+01
-6.18908E+01	 3.30391E+01
-5.74114E+01	 2.83857E+01
-5.29353E+01	-1.98760E+01
-4.84625E+01	-2.84043E+01
-4.39928E+01	-5.70000E+01
-3.95264E+01	 5.16523E+01
-3.50632E+01	 7.34375E+01
-3.06031E+01	-2.32490E+01
-2.61463E+01	-5.88096E+01
-2.16927E+01	-5.41855E+01
-1.72423E+01	 1.66967E+02
-1.27951E+01	 5.44005E+02
-8.35111E+00	 1.25509E+03
-3.91029E+00	 2.04077E+03
 5.27351E-01	 2.62425E+03
 4.96181E+00	 2.70321E+03
 9.39308E+00	 2.16657E+03
 1.38212E+01	 1.41980E+03
 1.82461E+01	 7.46424E+02
 2.26679E+01	 1.33317E+02
 2.70865E+01	-2.36283E+02
 3.15019E+01	 8.35303E+01
 3.59141E+01	 0.00000E+00
 4.03233E+01	 1.95313E-03
 4.47292E+01	 1.95313E-03
 4.91320E+01	 0.00000E+00
 5.35317E+01	 3.90625E-03
 5.79282E+01	 8.42891E+03
 6.23216E+01	 1.03164E+04
 6.67118E+01	 1.00985E+04
 7.10989E+01	 9.93395E+03
 7.54829E+01	 9.79743E+03
 7.98637E+01	 9.67914E+03
 8.42415E+01	 9.57400E+03
 8.86161E+01	 9.47898E+03
 9.29876E+01	 9.39211E+03
 9.73559E+01	 9.31200E+03
 1.01721E+02	 9.23765E+03
 1.06083E+02	 9.16830E+03
 1.10442E+02	 9.10335E+03
 1.14798E+02	 9.04232E+03
 1.19151E+02	 8.98484E+03
 1.23501E+02	 8.93058E+03
 1.27848E+02	 8.87928E+03
 1.32191E+02	 8.83071E+03
 1.36532E+02	 8.78468E+03
 1.40869E+02	 8.74103E+03
 1.45203E+02	 8.69961E+03
 1.49535E+02	 8.66029E+03
 1.53863E+02	 8.62296E+03
 1.58188E+02	 8.58752E+03
 1.62510E+02	 8.55389E+03
 1.66829E+02	 8.52198E+03
 1.71145E+02	 8.49174E+03
 1.75458E+02	 8.46309E+03
 1.79768E+02	 8.43597E+03
 1.84074E+02	 8.41034E+03
 1.88378E+02	 8.38616E+03
 1.92679E+02	 8.36336E+03
 1.96976E+02	 8.34193E+03
 2.01271E+02	 8.32183E+03
 2.05562E+02	 8.30302E+03
 2.09851E+02	 8.28548E+03
 2.14136E+02	 8.26917E+03
 2.18419E+02	 8.25408E+03
 2.22698E+02	 8.24019E+03
 2.26975E+02	 8.22747E+03
 2.31248E+02	 8.21591E+03
 2.35519E+02	 8.20550E+03
 2.39786E+02	 8.19622E+03
 2.44050E+02	 8.18805E+03
 2.48312E+02	 8.18100E+03
 2.52570E+02	 8.17505E+03
 2.56825E+02	 8.17018E+03
 2.61078E+02	 8.16641E+03
 2.65327E+02	 8.16371E+03
 2.69574E+02	 8.16210E+03
 2.73817E+02	 8.16156E+03
 2.78057E+02	 8.16210E+03
 2.82295E+02	 8.16371E+03
 2.86529E+02	 8.16641E+03
 2.90761E+02	 8.17018E+03
 2.94989E+02	 8.17504E+03
 2.99215E+02	 8.18100E+03
 3.03438E+02	 8.18805E+03
 3.07657E+02	 8.19622E+03
 3.11874E+02	 8.20550E+03
 3.16088E+02	 8.21591E+03
 3.20298E+02	 8.02322E+03
 3.24506E+02	 7.33569E+03
 3.28711E+02	 6.23358E+03
 3.32913E+02	 5.29317E+03
 3.37112E+02	 4.82622E+03
 3.41308E+02	 4.39552E+03
 3.45501E+02	 3.81233E+03
 3.49691E+02	 3.43768E+03
 3.53879E+02	 3.23661E+03
 3.58063E+02	 3.06665E+03
 3.62244E+02	 3.13309E+03
 3.66423E+02	 3.24047E+03
 3.70598E+02	 3.14283E+03
 3.74771E+02	 3.13973E+03
 3.78941E+02	 3.14373E+03
 3.83108E+02	 2.91288E+03
 3.87272E+02	 3.16827E+03
 3.91433E+02	 3.91470E+03
 3.95591E+02	 4.11578E+03
 3.99746E+02	 3.54185E+03
 4.03898E+02	 2.73378E+03
 4.08048E+02	 2.34268E+03
 4.12194E+02	 2.44446E+03
 4.16338E+02	 2.87928E+03
 4.20479E+02	 3.74408E+03
 4.24617E+02	 4.34759E+03
 4.28752E+02	 3.73457E+03
 4.32884E+02	 2.46409E+03
 4.37013E+02	 1.30380E+03
 4.41140E+02	 5.81484E+01
 4.45263E+02	-7.84754E+02
 4.49384E+02	-7.45520E+02
 4.53502E+02	-8.24922E+01
 4.57617E+02	 1.15688E+03
 4.61729E+02	 2.19307E+03
 4.65838E+02	 1.99793E+03
 4.69945E+02	 1.41878E+03
 4.74048E+02	 1.37663E+03
 4.78149E+02	 9.56758E+02
 4.82247E+02	 8.42813E+01
 4.86342E+02	-2.90578E+02
 4.90434E+02	-3.18195E+02
 4.94524E+02	-2.43465E+02
 4.98610E+02	-1.41602E+01
 5.02694E+02	 7.88086E+01
 5.06775E+02	 1.14531E+01
 5.10853E+02	 4.80000E+01
 5.14929E+02	 3.15391E+02
 5.19001E+02	 4.53980E+02
 5.23071E+02	 4.44285E+02
 5.27138E+02	 8.45832E+02
 5.31202E+02	 6.97895E+02
 5.35263E+02	-4.54500E+02
 5.39322E+02	-9.82074E+02
 5.43377E+02	-5.62535E+02
 5.47430E+02	-1.20496E+02
 5.51480E+02	 1.08844E+02
 5.55528E+02	 3.71152E+02
 5.59572E+02	 5.81195E+02
 5.63614E+02	 2.28004E+02
 5.67653E+02	-4.10645E+02
 5.71689E+02	-9.21266E+02
 5.75723E+02	-7.50398E+02
 5.79753E+02	 1.87344E+01
 5.83781E+02	-2.24555E+02
 5.87806E+02	-7.21016E+02
 5.91829E+02	 7.60156E+00
 5.95848E+02	 8.71293E+02
 5.99865E+02	 9.10820E+02
 6.03879E+02	 8.09430E+02
 6.07891E+02	 7.50641E+02
 6.11899E+02	-1.24059E+02
 6.15905E+02	-1.03814E+03
 6.19908E+02	-8.86613E+02
 6.23908E+02	-1.78215E+02
 6.27906E+02	 5.78316E+02
 6.31901E+02	 1.32598E+03
 6.35893E+02	 1.79354E+03
 6.39882E+02	 1.72825E+03
 6.43869E+02	 1.29489E+03
 6.47853E+02	 7.81734E+02
 6.51834E+02	 6.50539E+02
 6.55813E+02	 9.44836E+02
 6.59789E+02	 1.15914E+03
 6.63762E+02	 1.26325E+03
 6.67732E+02	 1.17693E+03
 6.71700E+02	 1.23197E+03
 6.75665E+02	 1.87941E+03
 6.79627E+02	 2.55154E+03
 6.83587E+02	 3.05715E+03
 6.87544E+02	 3.05180E+03
 6.91498E+02	 1.94655E+03
 6.95449E+02	 5.36949E+02
 6.99398E+02	-4.51918E+02
 7.03344E+02	-5.97230E+02
 7.07288E+02	 2.03598E+02
 7.11228E+02	 7.34172E+02
 7.15166E+02	 7.51844E+02
 7.19102E+02	 8.64996E+02
 7.23034E+02	 7.63527E+02
 7.26965E+02	 1.75094E+02
 7.30892E+02	-7.14105E+02
 7.34817E+02	-1.38233E+03
 7.38739E+02	-1.49522E+03
 7.42658E+02	-9.43574E+02
 7.46575E+02	 8.77656E+01
 7.50489E+02	 9.48570E+02
 7.54400E+02	 1.09212E+03
 7.58309E+02	 5.73176E+02
 7.62215E+02	 1.10531E+02
 7.66119E+02	-3.86789E+02
 7.70019E+02	-9.15250E+02
 7.73918E+02	-8.36313E+02
 7.77813E+02	-1.98188E+02
 7.81706E+02	 2.01680E+02
 7.85596E+02	 1.23332E+02
 7.89484E+02	 2.73828E+02
 7.93369E+02	 4.93980E+02
 7.97251E+02	 4.04363E+02
 8.01131E+02	 5.35801E+02
 8.05008E+02	 9.19629E+02
 8.08883E+02	 9.75703E+02
 8.12755E+02	 8.60375E+02
 8.16624E+02	 9.66277E+02
 8.20491E+02	 1.41580E+03
 8.24355E+02	 1.75938E+03
 8.28217E+02	 1.78418E+03
 8.32075E+02	 2.03818E+03
 8.35932E+02	 2.14691E+03
 8.39785E+02	 2.30919E+03
 8.43637E+02	 3.08324E+03
 8.47485E+02	 3.29743E+03
 8.51331E+02	 2.28929E+03
 8.55174E+02	 6.95391E+02
 8.59015E+02	-2.92254E+02
 8.62853E+02	-7.36328E+01
 8.66689E+02	 4.16406E+01
 8.70522E+02	-5.92371E+02
 8.74352E+02	-8.54758E+02
 8.78180E+02	-6.52301E+02
 8.82006E+02	-6.66250E+02
 8.85828E+02	-3.92082E+02
 8.89648E+02	 3.21695E+02
 8.93466E+02	 9.63609E+02
 8.97281E+02	 1.13217E+03
 9.01094E+02	 4.36137E+02
 9.04904E+02	-3.52227E+02
 9.08711E+02	-4.32883E+02
 9.12516E+02	 2.67172E+02
 9.16318E+02	 1.25847E+03
 9.20118E+02	 1.11302E+03
 9.23915E+02	 1.08629E+02
 9.27710E+02	-3.34941E+02
 9.31502E+02	-1.63148E+02
 9.35292E+02	-3.72148E+01
 9.39079E+02	-3.70820E+01
 9.42863E+02	 2.52031E+02
 9.46645E+02	 4.16684E+02
 9.50425E+02	-1.09570E+02
 9.54202E+02	-1.03117E+03
 9.57976E+02	-1.48279E+03
 9.61748E+02	-7.64848E+02
 9.65517E+02	 6.02480E+02
 9.69284E+02	 1.42030E+03
 9.73049E+02	 1.13723E+03
 9.76811E+02	 3.36129E+02
 9.80570E+02	 2.66906E+02
 9.84327E+02	 9.57980E+02
 9.88081E+02	 1.57353E+03
 9.91833E+02	 2.49554E+03
 9.95583E+02	 3.55377E+03
 9.99329E+02	 3.51804E+03
 1.00307E+03	 2.65899E+03
 1.00682E+03	 2.14135E+03
 1.01056E+03	 2.05920E+03
 1.01429E+03	 1.59680E+03
 1.01803E+03	 8.37426E+02
 1.02176E+03	 6.20445E+02
 1.02549E+03	 7.71340E+02
 1.02922E+03	 4.25633E+02
 1.03294E+03	-4.96105E+02
 1.03666E+03	-1.08550E+03
 1.04038E+03	-7.62926E+02
 1.04410E+03	 1.03785E+02
 1.04781E+03	 8.98363E+02
 1.05153E+03	 1.11721E+03
 1.05524E+03	 5.50316E+02
 1.05894E+03	 1.59922E+01
 1.06265E+03	-1.36719E-01
 1.06635E+03	-3.31133E+01
 1.07005E+03	-5.20469E+02
 1.07375E+03	-7.88250E+02
 1.07744E+03	-1.80297E+02
 1.08114E+03	 2.91770E+02
 1.08483E+03	 1.52234E+02
 1.08851E+03	 3.15910E+02
 1.09220E+03	 3.62266E+02
 1.09588E+03	-1.65508E+02
 1.09956E+03	-3.43973E+02
 1.10324E+03	-2.67785E+02
 1.10692E+03	-5.02332E+02
 1.11059E+03	-4.84117E+02
 1.11426E+03	-4.88398E+01
 1.11793E+03	 3.47383E+01
 1.12159E+03	-2.98246E+02
 1.12526E+03	-6.62570E+02
 1.12892E+03	-9.03523E+02
 1.13258E+03	-7.99387E+02
 1.13623E+03	-3.30160E+02
 1.13989E+03	 2.06145E+02
 1.14354E+03	 5.68277E+02
 1.14719E+03	 8.16742E+02
 1.15084E+03	 9.13277E+02
 1.15448E+03	 6.13395E+02
 1.15812E+03	 2.54336E+02
 1.16176E+03	-9.26367E+01
 1.16540E+03	-8.88523E+02
 1.16903E+03	-1.23557E+03
 1.17267E+03	-1.81516E+02
 1.17630E+03	 1.58965E+03
 1.17992E+03	 2.52668E+03
 1.18355E+03	 1.83984E+03
 1.18717E+03	 7.51148E+02
 1.19079E+03	 5.71867E+02
 1.19441E+03	 6.20758E+02
 1.19803E+03	-4.11523E+01
 1.20164E+03	-7.28598E+02
 1.20525E+03	-7.71551E+02
 1.20886E+03	-6.14238E+02
 1.21246E+03	-4.19137E+02
 1.21607E+03	 2.62930E+01
 1.21967E+03	 4.58320E+01
 1.22327E+03	-2.93730E+02
 1.22687E+03	-1.75852E+02
 1.23046E+03	 1.01266E+02
 1.23405E+03	 3.72914E+02
 1.23764E+03	 2.54160E+02
 1.24123E+03	-5.74375E+01
 1.24482E+03	 3.29695E+02
 1.24840E+03	 8.78633E+02
 1.25198E+03	 1.07496E+03
 1.25556E+03	 1.22029E+03
 1.25913E+03	 1.12296E+03
 1.26271E+03	 4.12863E+02
 1.26628E+03	-2.34109E+02
 1.26985E+03	 4.74609E+01
 1.27341E+03	 8.16008E+02
 1.27698E+03	 8.48266E+02
 1.28054E+03	 3.55250E+02
 1.28410E+03	 6.03527E+02
 1.28766E+03	 1.29148E+03
 1.29121E+03	 1.35608E+03
 1.29476E+03	 7.53176E+02
 1.29831E+03	 1.92535E+02
 1.30186E+03	-7.25938E+01
 1.30541E+03	-1.73070E+02
 1.30895E+03	 1.65320E+02
 1.31249E+03	 4.99613E+02
 1.31603E+03	 2.99629E+02
 1.31957E+03	 1.26992E+01
 1.32310E+03	-3.70742E+01
 1.32663E+03	 3.70746E+02
 1.33016E+03	 6.42758E+02
 1.33369E+03	 1.19668E+02
 1.33722E+03	-5.06031E+02
 1.34074E+03	-9.22906E+02
 1.34426E+03	-9.16039E+02
 1.34778E+03	-3.58781E+02
 1.35129E+03	 1.40953E+02
 1.35481E+03	 4.51730E+02
 1.35832E+03	 7.65738E+02
 1.36183E+03	 5.04188E+02
 1.36534E+03	 3.75043E+02
 1.36884E+03	 9.21641E+02
 1.37234E+03	 7.02996E+02
 1.37584E+03	 7.48711E+01
 1.37934E+03	 1.25391E+02
 1.38284E+03	-3.12148E+01
 1.38633E+03	-5.16676E+02
 1.38982E+03	-1.81285E+02
 1.39331E+03	 2.71742E+02
 1.39680E+03	-1.78113E+02
 1.40028E+03	-5.22336E+02
 1.40376E+03	-2.60848E+02
 1.40724E+03	-1.44527E+02
 1.41072E+03	-2.53941E+02
 1.41420E+03	-2.28984E+02
 1.41767E+03	-1.18680E+02
 1.42114E+03	-4.87656E+01
 1.42461E+03	 1.24012E+02
 1.42808E+03	 3.92426E+02
 1.43154E+03	 4.03984E+02
 1.43500E+03	 8.52031E+01
 1.43846E+03	 5.95938E+01
 1.44192E+03	 2.74934E+02
 1.44537E+03	-1.21012E+02
 1.44883E+03	-5.75715E+02
 1.45228E+03	-1.43906E+02
 1.45573E+03	 3.66641E+02
 1.45917E+03	 3.69195E+02
 1.46262E+03	 3.92051E+02
 1.46606E+03	 4.34984E+02
 1.46950E+03	 3.32273E+02
 1.47294E+03	 1.26961E+02
 1.47637E+03	-3.40047E+02
 1.47981E+03	-9.90066E+02
 1.48324E+03	-1.14815E+03
 1.48667E+03	-4.22836E+02
 1.49009E+03	 4.15875E+02
 1.49352E+03	 4.60516E+02
 1.49694E+03	 2.90359E+02
 1.50036E+03	 2.58160E+02
 1.50378E+03	-2.33293E+02
 1.50720E+03	-4.68734E+02
 1.51061E+03	-1.99629E+02
 1.51402E+03	-7.61992E+01
 1.51743E+03	 1.72840E+02
 1.52084E+03	 7.40277E+02
 1.52424E+03	 1.25366E+03
 1.52764E+03	 1.20427E+03
 1.53105E+03	 1.18843E+03
 1.53444E+03	 1.71292E+03
 1.53784E+03	 1.85007E+03
 1.54123E+03	 1.49920E+03
 1.54463E+03	 1.47764E+03
 1.54802E+03	 2.04047E+03
 1.55140E+03	 2.58754E+03
 1.55479E+03	 2.56621E+03
 1.55817E+03	 2.29637E+03
 1.56155E+03	 2.27890E+03
 1.56493E+03	 2.46297E+03
 1.56831E+03	 2.38852E+03
 1.57168E+03	 2.24302E+03
 1.57506E+03	 2.55751E+03
 1.57843E+03	 2.61729E+03
 1.58180E+03	 2.12773E+03
 1.58516E+03	 1.98634E+03
 1.58853E+03	 2.18643E+03
 1.59189E+03	 2.47729E+03
 1.59525E+03	 2.90741E+03
 1.59861E+03	 3.02119E+03
 1.60196E+03	 2.42933E+03
 1.60531E+03	 1.84412E+03
 1.60867E+03	 1.43960E+03
 1.61202E+03	 5.77367E+02
 1.61536E+03	-1.20813E+02
 1.61871E+03	-1.24148E+02
 1.62205E+03	 4.26133E+01
 1.62539E+03	 1.62688E+02
 1.62873E+03	 2.10902E+02
 1.63207E+03	 1.80625E+01
 1.63540E+03	-2.17430E+02
 1.63873E+03	-1.77836E+02
 1.64206E+03	 2.59664E+02
 1.64539E+03	 4.24039E+02
 1.64872E+03	-2.02734E+01
 1.65204E+03	-5.00426E+02
 1.65536E+03	 1.80859E+01
 1.65868E+03	 6.13910E+02
 1.66200E+03	 2.80574E+02
 1.66532E+03	-3.44570E+02
 1.66863E+03	-3.73184E+02
 1.67194E+03	 4.64297E+01
 1.67525E+03	 2.92379E+02
 1.67856E+03	 1.55137E+02
 1.68186E+03	 3.06484E+01
 1.68516E+03	-1.31777E+02
 1.68847E+03	-1.98965E+02
 1.69176E+03	-1.85961E+02
 1.69506E+03	-3.47348E+02
 1.69836E+03	-1.25355E+02
 1.70165E+03	 5.02559E+02
 1.70494E+03	 4.51102E+02
 1.70823E+03	-1.96137E+02
 1.71151E+03	-5.62258E+02
 1.71480E+03	-2.04867E+02
 1.71808E+03	 4.28426E+02
 1.72136E+03	 5.09688E+02
 1.72464E+03	 3.05117E+01
 1.72792E+03	-3.45922E+02
 1.73119E+03	-5.90781E+01
 1.73446E+03	 3.60684E+02
 1.73773E+03	 1.60207E+02
 1.74100E+03	-1.59699E+02
 1.74427E+03	-7.65625E-01
 1.74753E+03	 1.91512E+02
 1.75079E+03	 5.77109E+01
 1.75405E+03	-9.91836E+01
 1.75731E+03	 1.05914E+02
 1.76057E+03	 3.81270E+02
 1.76382E+03	 2.36395E+02
 1.76707E+03	-5.28359E+01
 1.77032E+03	-3.85859E+01
 1.77357E+03	 7.81250E+00
 1.77681E+03	-9.01445E+01
 1.78006E+03	-3.41328E+01
 1.78330E+03	 9.14395E+01
 1.78654E+03	 4.46992E+01
 1.78978E+03	-1.48164E+01
 1.79301E+03	 1.96309E+01
 1.79625E+03	 5.09004E+01
 1.79948E+03	 3.08242E+01
 1.80271E+03	-1.53354E+02
 1.80593E+03	-1.92662E+02
 1.80916E+03	 1.36457E+02
 1.81238E+03	 3.20971E+02
 1.81560E+03	 2.53373E+02
 1.81882E+03	 1.97170E+02
 1.82204E+03	 2.76990E+02
 1.82526E+03	-5.59961E+00
 1.82847E+03	-7.82748E+02
 1.83168E+03	-9.99967E+02
 1.83489E+03	-2.05902E+02
 1.83810E+03	 6.49648E+02
 1.84130E+03	 7.87156E+02
 1.84451E+03	 3.84391E+02
 1.84771E+03	 7.06641E+01
 1.85091E+03	-3.06348E+01
 1.85411E+03	-1.29281E+02
 1.85730E+03	-1.12934E+02
 1.86049E+03	 1.20424E+02
 1.86369E+03	 4.84549E+02
 1.86688E+03	 7.01176E+02
 1.87006E+03	 4.09945E+02
 1.87325E+03	-1.09160E+02
 1.87643E+03	-1.48367E+02
 1.87961E+03	 4.96445E+01
 1.88279E+03	-1.58262E+02
 1.88597E+03	-3.71064E+02
 1.88915E+03	-5.22285E+01
 1.89232E+03	 3.96404E+02
 1.89549E+03	 3.74713E+02
 1.89866E+03	 7.10117E+01
 1.90183E+03	-1.74395E+01
 1.90500E+03	-5.62441E+01
 1.90816E+03	-1.31588E+02
 1.91132E+03	 5.36719E+01
 1.91448E+03	 3.46904E+02
 1.91764E+03	 3.12428E+02
 1.92080E+03	-7.87402E+01
 1.92395E+03	-4.07287E+02
 1.92710E+03	-2.50436E+02
 1.93025E+03	 9.79141E+01
 1.93340E+03	 1.25020E+02
 1.93655E+03	 4.46426E+01
 1.93969E+03	 1.16162E+02
 1.94284E+03	 1.91557E+02
 1.94598E+03	 1.38850E+02
 1.94912E+03	-9.47305E+01
 1.95225E+03	-2.89791E+02
 1.95539E+03	-2.06039E+02
 1.95852E+03	-5.98809E+01
 1.96165E+03	-7.28711E+01
 1.96478E+03	 1.30111E+02
 1.96791E+03	 4.60885E+02
 1.97103E+03	 3.00217E+02
 1.97416E+03	-3.90098E+01
 1.97728E+03	 1.39434E+01
 1.98040E+03	 1.43045E+02
 1.98352E+03	-1.10547E+00
 1.98663E+03	-1.34000E+02
 1.98975E+03	 1.46123E+02
 1.99286E+03	 4.41643E+02
 1.99597E+03	 1.71037E+02
 1.99908E+03	-3.94170E+02
 2.00218E+03	-5.12656E+02
 2.00529E+03	-2.21367E+01
 2.00839E+03	 5.21758E+02
 2.01149E+03	 4.41801E+02
 2.01459E+03	-5.23516E+01
 2.01769E+03	-1.95604E+02
 2.02078E+03	 3.13281E+01
 2.02387E+03	 1.95855E+02
 2.02696E+03	 1.60424E+02
 2.03005E+03	-1.41428E+02
 2.03314E+03	-3.30627E+02
 2.03623E+03	-1.62869E+02
 2.03931E+03	-9.88672E+00
 2.04239E+03	 1.82139E+02
 2.04547E+03	 4.25090E+02
 2.04855E+03	 3.56443E+02
 2.05163E+03	 1.58939E+02
 2.05470E+03	 6.40371E+01
 2.05777E+03	-5.33555E+01
 2.06084E+03	-1.86732E+02
 2.06391E+03	-1.75963E+02
 2.06698E+03	-6.60684E+01
 2.07004E+03	-4.81563E+01
 2.07310E+03	 5.70801E+01
 2.07617E+03	 2.39492E+02
 2.07923E+03	 1.35389E+02
 2.08228E+03	 1.58594E+00
 2.08534E+03	 1.60645E+01
 2.08839E+03	-1.25820E+02
 2.09144E+03	-2.59420E+02
 2.09449E+03	-2.72174E+02
 2.09754E+03	-3.05270E+02
 2.10059E+03	-1.79889E+02
 2.10363E+03	 5.10488E+01
 2.10667E+03	 1.85129E+02
 2.10972E+03	 3.73199E+02
 2.11275E+03	 5.80625E+02
 2.11579E+03	 5.91277E+02
 2.11883E+03	 5.23807E+02
 2.12186E+03	 5.73373E+02
 2.12489E+03	 7.05426E+02
 2.12792E+03	 7.48184E+02
 2.13095E+03	 5.20166E+02
 2.13397E+03	 2.24939E+02
 2.13700E+03	 1.49143E+02
 2.14002E+03	 3.17744E+02
 2.14304E+03	 6.16092E+02
 2.14606E+03	 7.19199E+02
 2.14908E+03	 6.50572E+02
 2.15209E+03	 5.54092E+02
 2.15511E+03	 2.04236E+02
 2.15812E+03	-1.70469E+02
 2.16113E+03	-1.64533E+02
 2.16413E+03	 1.77207E+01
 2.16714E+03	 6.18184E+01
 2.17014E+03	 1.07676E+02
 2.17315E+03	 2.02820E+02
 2.17615E+03	 6.92773E+00
 2.17915E+03	-1.98199E+02
 2.18214E+03	-5.17051E+01
 2.18514E+03	 1.08668E+02
 2.18813E+03	 7.91875E+01
 2.19112E+03	 1.65625E+01
 2.19411E+03	 1.45332E+01
 2.19710E+03	-5.50938E+01
 2.20009E+03	-1.02729E+02
 2.20307E+03	-4.10957E+01
 2.20605E+03	 4.23965E+01
 2.20903E+03	 1.30447E+02
 2.21201E+03	 1.55266E+02
 2.21499E+03	 6.64063E-02
 2.21796E+03	-1.86176E+02
 2.22094E+03	-1.40443E+02
 2.22391E+03	 1.03330E+02
 2.22688E+03	 2.89283E+02
 2.22985E+03	 2.50387E+02
 2.23281E+03	 1.48234E+02
 2.23578E+03	 1.23092E+02
 2.23874E+03	 6.07148E+01
 2.24170E+03	-4.55156E+01
 2.24466E+03	-1.56930E+02
 2.24762E+03	-1.94301E+02
 2.25058E+03	 2.40566E+01
 2.25353E+03	 3.38430E+02
 2.25648E+03	 3.69949E+02
 2.25943E+03	 1.09844E+02
 2.26238E+03	-3.83613E+01
 2.26533E+03	-4.03496E+01
 2.26827E+03	-1.18391E+02
 2.27122E+03	-3.09531E+01
 2.27416E+03	 2.57127E+02
 2.27710E+03	 2.85947E+02
 2.28004E+03	-5.06270E+01
 2.28297E+03	-2.87975E+02
 2.28591E+03	-1.38195E+02
 2.28884E+03	 1.50621E+02
 2.29177E+03	 2.80367E+02
 2.29470E+03	 2.08934E+02
 2.29763E+03	 9.04863E+01
 2.30055E+03	-4.00586E+00
 2.30348E+03	-1.19773E+02
 2.30640E+03	-1.56750E+02
 2.30932E+03	-1.12971E+02
 2.31224E+03	 1.57617E+01
 2.31516E+03	 1.83537E+02
 2.31807E+03	 1.57238E+02
 2.32099E+03	 6.28398E+01
 2.32390E+03	 9.70898E+01
 2.32681E+03	 1.13688E+02
 2.32972E+03	-1.17051E+01
 2.33262E+03	-9.28320E+01
 2.33553E+03	 2.28203E+01
 2.33843E+03	 1.20920E+02
 2.34133E+03	 1.20273E+01
 2.34423E+03	-1.49574E+02
 2.34713E+03	-1.19176E+02
 2.35003E+03	 1.60723E+01
 2.35292E+03	 1.32725E+02
 2.35581E+03	 1.99355E+02
 2.35871E+03	 1.18293E+02
 2.36160E+03	 2.23730E+01
 2.36448E+03	 3.34434E+01
 2.36737E+03	 1.66191E+01
 2.37025E+03	-1.82266E+01
 2.37314E+03	 7.80078E+00
 2.37602E+03	 4.33789E+00
 2.37890E+03	-3.98848E+01
 2.38177E+03	-3.93184E+01
 2.38465E+03	-7.32656E+01
 2.38752E+03	-3.75078E+01
 2.39040E+03	 8.05430E+01
 2.39327E+03	 9.20508E+01
 2.39614E+03	 3.47832E+01
 2.39900E+03	 1.28086E+01
 2.40187E+03	 5.77598E+01
 2.40473E+03	 7.33613E+01
 2.40760E+03	 3.57109E+01
 2.41046E+03	 3.86270E+01
 2.41332E+03	 5.94844E+01
 2.41617E+03	 1.15430E+00
 2.41903E+03	-9.34648E+01
 2.42188E+03	-8.47402E+01
 2.42473E+03	-1.49277E+01
 2.42758E+03	-6.03711E+00
 2.43043E+03	-4.34219E+01
 2.43328E+03	 2.87285E+01
 2.43613E+03	 1.24727E+02
 2.43897E+03	 9.78789E+01
 2.44181E+03	 7.52598E+01
 2.44465E+03	 8.69473E+01
 2.44749E+03	 5.90273E+01
 2.45033E+03	 3.76719E+01
 2.45316E+03	 7.15020E+01
 2.45600E+03	 1.57824E+02
 2.45883E+03	 1.56748E+02
 2.46166E+03	 2.29023E+01
 2.46449E+03	-1.12570E+02
 2.46732E+03	-1.89002E+02
 2.47014E+03	-1.16972E+02
 2.47296E+03	 5.80996E+01
 2.47579E+03	 1.06524E+02
 2.47861E+03	 2.69277E+01
 2.48143E+03	-3.02939E+01
 2.48424E+03	-6.02441E+00
 2.48706E+03	 7.90039E+01
 2.48987E+03	 1.56572E+02
 2.49268E+03	 1.40622E+02
 2.49549E+03	 7.56309E+01
 2.49830E+03	 6.61328E+00
 2.50111E+03	-2.91123E+01
 2.50392E+03	-5.82822E+01
 2.50672E+03	-1.37461E+02
 2.50952E+03	-1.50558E+02
 2.51232E+03	 4.42637E+01
 2.51512E+03	 3.04188E+02
 2.51792E+03	 3.99343E+02
 2.52072E+03	 3.90120E+02
 2.52351E+03	 2.86688E+02
 2.52630E+03	 1.62393E+01
 2.52909E+03	-2.15503E+02
 2.53188E+03	-2.05421E+02
 2.53467E+03	-2.40176E+01
 2.53746E+03	 1.52275E+02
 2.54024E+03	 1.88679E+02
 2.54302E+03	 9.68105E+01
 2.54580E+03	 1.13247E+02
 2.54858E+03	 2.27827E+02
 2.55136E+03	 2.08398E+02
 2.55414E+03	 1.00073E+02
 2.55691E+03	 1.87275E+01
 2.55968E+03	-7.32451E+01
 2.56246E+03	-1.04425E+02
 2.56523E+03	-1.71787E+01
 2.56799E+03	 5.94756E+01
 2.57076E+03	 1.30356E+02
 2.57353E+03	 1.55793E+02
 2.57629E+03	 8.98105E+01
 2.57905E+03	 1.29248E+02
 2.58181E+03	 1.99327E+02
 2.58457E+03	 1.47899E+02
 2.58733E+03	 5.95732E+01
 2.59008E+03	-6.25225E+01
 2.59283E+03	-1.59393E+02
 2.59559E+03	-1.09975E+02
 2.59834E+03	 3.95215E+01
 2.60109E+03	 1.62426E+02
 2.60383E+03	 1.78307E+02
 2.60658E+03	 2.08993E+02
 2.60932E+03	 2.50073E+02
 2.61207E+03	 1.20433E+02
 2.61481E+03	-4.97383E+01
 2.61755E+03	-9.16670E+01
 2.62028E+03	-2.07422E+01
 2.62302E+03	 4.12158E+01
 2.62575E+03	 4.43955E+01
 2.62849E+03	-2.55645E+01
 2.63122E+03	-1.27877E+02
 2.63395E+03	-4.78369E+01
 2.63668E+03	 1.52851E+02
 2.63940E+03	 1.85979E+02
 2.64213E+03	 8.35928E+01
 2.64485E+03	 9.74512E+00
 2.64757E+03	 1.99121E+00
 2.65029E+03	 1.11455E+01
 2.65301E+03	 4.02637E+00
 2.65573E+03	 5.11787E+01
 2.65845E+03	 5.73105E+01
 2.66116E+03	-5.87529E+01
 2.66387E+03	-9.64678E+01
 2.66658E+03	-3.09170E+01
 2.66929E+03	-2.21709E+01
 2.67200E+03	-4.66406E+00
 2.67471E+03	 6.85156E+01
 2.67741E+03	 1.11806E+02
 2.68012E+03	 1.01993E+02
 2.68282E+03	 2.37109E+00
 2.68552E+03	-7.15146E+01
 2.68822E+03	-3.03633E+01
 2.69091E+03	-8.16992E+00
 2.69361E+03	-2.42676E+01
 2.69630E+03	-2.90068E+01
 2.69899E+03	-1.71289E+01
 2.70168E+03	 3.64854E+01
 2.70437E+03	 9.80508E+01
 2.70706E+03	 8.71650E+01
 2.70975E+03	 2.73174E+01
 2.71243E+03	 3.93135E+01
 2.71511E+03	 1.11967E+02
 2.71780E+03	 1.88349E+02
 2.72048E+03	 1.61535E+02
 2.72315E+03	-5.88477E+00
 2.72583E+03	-1.07063E+02
 2.72851E+03	-7.57627E+01
 2.73118E+03	 1.16504E+01
 2.73385E+03	 8.12080E+01
 2.73652E+03	 8.14248E+01
 2.73919E+03	 6.78174E+01
 2.74186E+03	 6.69063E+01
 2.74453E+03	 5.74609E+01
 2.74719E+03	 4.97559E+01
 2.74985E+03	 3.48154E+01
 2.75251E+03	 1.16699E+01
 2.75517E+03	-2.52529E+01
 2.75783E+03	-7.98984E+01
 2.76049E+03	-8.21875E+00
 2.76315E+03	 1.08821E+02
 2.76580E+03	 1.19009E+02
 2.76845E+03	 1.06137E+02
 2.77110E+03	 5.05010E+01
 2.77375E+03	-4.65967E+01
 2.77640E+03	-8.72256E+01
 2.77905E+03	-7.44434E+00
 2.78169E+03	 7.97354E+01
 2.78433E+03	 6.72754E+01
 2.78698E+03	 5.72461E+00
 2.78962E+03	-3.73535E+00
 2.79226E+03	 4.87021E+01
 2.79489E+03	 2.54688E+01
 2.79753E+03	-5.60938E+01
 2.80016E+03	-5.38047E+01
 2.80280E+03	 2.25547E+01
 2.80543E+03	 3.34678E+01
 2.80806E+03	-1.57490E+01
 2.81068E+03	-3.25859E+01
 2.81331E+03	 9.72070E+00
 2.81594E+03	 7.21875E+01
 2.81856E+03	 9.13311E+01
 2.82118E+03	 3.29521E+01
 2.82380E+03	-4.44043E+01
 2.82642E+03	-3.93164E+01
 2.82904E+03	 2.72383E+01
 2.83166E+03	 4.62832E+01
 2.83427E+03	-8.15625E+00
 2.83689E+03	-4.09004E+01
 2.83950E+03	-4.71318E+01
 2.84211E+03	-4.23174E+01
 2.84472E+03	-3.37402E+00
 2.84732E+03	 2.54023E+01
 2.84993E+03	 1.70146E+01
 2.85253E+03	 1.12197E+01
 2.85514E+03	 3.47744E+01
 2.85774E+03	 4.26875E+01
 2.86034E+03	 5.19697E+01
 2.86294E+03	 5.84375E+01
 2.86553E+03	 5.21973E+00
 2.86813E+03	-4.13672E+01
 2.87072E+03	-3.78105E+01
 2.87332E+03	-1.05938E+01
 2.87591E+03	 3.22998E+01
 2.87850E+03	 7.38877E+01
 2.88109E+03	 6.26924E+01
 2.88367E+03	-4.01270E+00
 2.88626E+03	-2.67021E+01
 2.88884E+03	 2.15234E+00
 2.89142E+03	 5.42969E-01
 2.89401E+03	 1.66484E+01
 2.89659E+03	 4.06758E+01
 2.89916E+03	-1.75996E+01
 2.90174E+03	-7.91123E+01
 2.90432E+03	-5.09072E+01
 2.90689E+03	 1.47461E-01
 2.90946E+03	 3.23105E+01
 2.91203E+03	 6.18428E+01
 2.91460E+03	 7.82559E+01
 2.91717E+03	 7.03135E+01
 2.91974E+03	 6.17803E+01
 2.92230E+03	 4.59229E+01
 2.92486E+03	 2.76172E+00
 2.92743E+03	-3.93359E+00
 2.92999E+03	 3.53613E+01
 2.93255E+03	 8.24219E+01
 2.93510E+03	 9.29053E+01
 2.93766E+03	 7.02158E+01
 2.94021E+03	 4.48203E+01
 2.94277E+03	 5.00000E+00
 2.94532E+03	 2.17900E+01
 2.94787E+03	 5.99775E+01
 2.95042E+03	 5.73555E+01
 2.95297E+03	 3.39697E+01
 2.95551E+03	-1.83779E+01
 2.95806E+03	-4.06318E+01
 2.96060E+03	-2.81650E+01
 2.96314E+03	 1.74775E+01
 2.96568E+03	 6.75664E+01
 2.96822E+03	 7.16211E+01
 2.97076E+03	 4.01660E+01
 2.97330E+03	 1.79766E+01
 2.97583E+03	 3.70625E+01
 2.97837E+03	 7.11230E+01
 2.98090E+03	 9.72275E+01
 2.98343E+03	 1.25407E+02
 2.98596E+03	 1.02697E+02
 2.98849E+03	 1.98848E+01
 2.99101E+03	-3.12373E+01
 2.99354E+03	-7.62305E+00
 2.99606E+03	 1.01680E+01
 2.99858E+03	 6.15625E+00
 3.00110E+03	 1.03613E+01
 3.00362E+03	 6.37305E+00
 3.00614E+03	 7.57813E+00
 3.00866E+03	 5.02148E+00
 3.01117E+03	-8.20215E+00
 3.01369E+03	 1.01416E+01
 3.01620E+03	 2.11670E+01
 3.01871E+03	-1.39697E+01
 3.02122E+03	-1.07656E+01
 3.02373E+03	 2.90391E+01
 3.02623E+03	 3.64531E+01
 3.02874E+03	 2.39854E+01
 3.03124E+03	 2.64844E+00
 3.03374E+03	 2.45605E+00
 3.03625E+03	 1.41729E+01
 3.03875E+03	 5.31543E+00
 3.04124E+03	-6.64941E+00
 3.04374E+03	-3.82715E+01
 3.04624E+03	-2.98555E+01
 3.04873E+03	 2.30879E+01
 3.05122E+03	-9.67578E+00
 3.05371E+03	-5.44824E+01
 3.05620E+03	-2.95605E+00
 3.05869E+03	 4.66563E+01
 3.06118E+03	 4.60459E+01
 3.06367E+03	 4.39092E+01
 3.06615E+03	 1.91133E+01
 3.06863E+03	-1.23320E+01
 3.07111E+03	-1.14180E+01
 3.07359E+03	-1.28857E+01
 3.07607E+03	-3.22266E+00
 3.07855E+03	 7.58496E+00
 3.08103E+03	 1.10518E+01
 3.08350E+03	-5.56641E-02
 3.08598E+03	-2.25811E+01
 3.08845E+03	-7.52344E+00
 3.09092E+03	 2.36934E+01
 3.09339E+03	 4.65859E+01
 3.09586E+03	 1.88213E+01
 3.09832E+03	-3.87861E+01
 3.10079E+03	-5.85400E+01
