X-Axis	dried HMB-1 (CRR) (SG) (Sub BG)
-3.97831E+02	 3.98901E+00
-3.93106E+02	 3.16455E+00
-3.88385E+02	 1.37231E+00
-3.83668E+02	 7.26807E-01
-3.78954E+02	-8.83789E-01
-3.74244E+02	-5.76904E-01
-3.69537E+02	 7.56836E-03
-3.64833E+02	 1.71631E-01
-3.60133E+02	-3.11523E-01
-3.55437E+02	 1.19385E-01
-3.50744E+02	 4.84863E-01
-3.46054E+02	 1.03076E+00
-3.41368E+02	 2.49268E-01
-3.36685E+02	 3.11035E-01
-3.32006E+02	-1.39087E+00
-3.27330E+02	-2.92578E+00
-3.22658E+02	-1.88818E+00
-3.17989E+02	 1.44287E-01
-3.13323E+02	 7.27295E-01
-3.08661E+02	-4.97070E-01
-3.04002E+02	-1.07666E+00
-2.99347E+02	-1.23047E+00
-2.94695E+02	-2.71313E+00
-2.90047E+02	-1.36353E+00
-2.85402E+02	-3.75488E-01
-2.80760E+02	 1.24487E+00
-2.76122E+02	 3.60718E+00
-2.71487E+02	 3.95166E+00
-2.66855E+02	 4.12402E+00
-2.62227E+02	 9.98779E-01
-2.57603E+02	-1.79541E+00
-2.52981E+02	-1.95264E+00
-2.48363E+02	-2.38330E+00
-2.43749E+02	-5.64209E-01
-2.39138E+02	-1.86426E+00
-2.34530E+02	-1.56055E+00
-2.29925E+02	 1.62842E-01
-2.25324E+02	 1.26270E+00
-2.20726E+02	 1.75024E+00
-2.16132E+02	 1.33472E+00
-2.11541E+02	 7.67578E-01
-2.06953E+02	-8.53760E-01
-2.02369E+02	-9.75098E-01
-1.97788E+02	-1.10620E+00
-1.93210E+02	-7.78809E-02
-1.88636E+02	-1.74072E-01
-1.84065E+02	 8.69385E-01
-1.79497E+02	 2.35669E+00
-1.74932E+02	 2.83936E-01
-1.70371E+02	-1.16260E+00
-1.65814E+02	-1.11621E+00
-1.61259E+02	 8.08594E-01
-1.56708E+02	 3.59839E+00
-1.52160E+02	 3.19385E+00
-1.47615E+02	 2.10132E+00
-1.43074E+02	-7.85645E-01
-1.38536E+02	-1.59399E+00
-1.34001E+02	-9.72412E-01
-1.29470E+02	-1.25220E+00
-1.24942E+02	-6.00098E-01
-1.20417E+02	-1.98022E+00
-1.15896E+02	-3.06372E+00
-1.11377E+02	-2.11914E+00
-1.06862E+02	-3.41553E-01
-1.02350E+02	 5.80811E-01
-9.78419E+01	-3.30322E-01
-9.33366E+01	-3.89404E-01
-8.88346E+01	-4.94873E-01
-8.43359E+01	-1.51978E+00
-7.98404E+01	-1.19653E+00
-7.53481E+01	-8.80127E-01
-7.08591E+01	-1.08911E+00
-6.63733E+01	-4.86816E-01
-6.18908E+01	 1.43799E-01
-5.74114E+01	-1.60498E+00
-5.29353E+01	-4.83105E+00
-4.84625E+01	-5.14014E+00
-4.39928E+01	-4.75366E+00
-3.95264E+01	-1.21436E+00
-3.50632E+01	-3.34473E-01
-3.06031E+01	-5.94287E+00
-2.61463E+01	-9.61719E+00
-2.16927E+01	-1.59819E+01
-1.72423E+01	-9.69092E+00
-1.27951E+01	 9.43799E+00
-8.35111E+00	 4.57744E+01
-3.91029E+00	 8.27393E+01
 5.27351E-01	 1.06508E+02
 4.96181E+00	 1.05331E+02
 9.39308E+00	 8.37988E+01
 1.38212E+01	 4.23325E+01
 1.82461E+01	-8.56641E+00
 2.26679E+01	-6.54160E+01
 2.70865E+01	-7.35791E+01
 3.15019E+01	-1.45219E+02
 3.59141E+01	-2.51069E+02
 4.03233E+01	-9.38867E+01
 4.47292E+01	 1.55318E+02
 4.91320E+01	 1.76006E+01
 5.35317E+01	 1.12262E+03
 5.79282E+01	 3.17353E+03
 6.23216E+01	 5.44111E+03
 6.67118E+01	 7.62192E+03
 7.10989E+01	 9.42798E+03
 7.54829E+01	 1.06721E+04
 7.98637E+01	 1.13019E+04
 8.42415E+01	 1.15893E+04
 8.86161E+01	 1.17045E+04
 9.29876E+01	 1.14731E+04
 9.73559E+01	 1.09509E+04
 1.01721E+02	 1.02614E+04
 1.06083E+02	 9.44975E+03
 1.10442E+02	 8.72055E+03
 1.14798E+02	 8.12150E+03
 1.19151E+02	 7.71528E+03
 1.23501E+02	 7.32071E+03
 1.27848E+02	 6.80359E+03
 1.32191E+02	 6.36363E+03
 1.36532E+02	 5.95755E+03
 1.40869E+02	 5.64159E+03
 1.45203E+02	 5.30672E+03
 1.49535E+02	 4.86926E+03
 1.53863E+02	 4.39955E+03
 1.58188E+02	 3.90333E+03
 1.62510E+02	 3.47022E+03
 1.66829E+02	 3.19585E+03
 1.71145E+02	 3.03780E+03
 1.75458E+02	 2.95184E+03
 1.79768E+02	 2.81089E+03
 1.84074E+02	 2.67190E+03
 1.88378E+02	 2.48455E+03
 1.92679E+02	 2.21645E+03
 1.96976E+02	 2.01383E+03
 2.01271E+02	 1.83577E+03
 2.05562E+02	 1.63701E+03
 2.09851E+02	 1.44809E+03
 2.14136E+02	 1.34622E+03
 2.18419E+02	 1.35726E+03
 2.22698E+02	 1.42517E+03
 2.26975E+02	 1.53074E+03
 2.31248E+02	 1.59635E+03
 2.35519E+02	 1.49690E+03
 2.39786E+02	 1.34455E+03
 2.44050E+02	 1.27150E+03
 2.48312E+02	 1.31254E+03
 2.52570E+02	 1.38673E+03
 2.56825E+02	 1.43319E+03
 2.61078E+02	 1.42084E+03
 2.65327E+02	 1.34286E+03
 2.69574E+02	 1.29134E+03
 2.73817E+02	 1.32738E+03
 2.78057E+02	 1.41688E+03
 2.82295E+02	 1.45116E+03
 2.86529E+02	 1.40342E+03
 2.90761E+02	 1.30431E+03
 2.94989E+02	 1.18315E+03
 2.99215E+02	 1.07966E+03
 3.03438E+02	 1.03158E+03
 3.07657E+02	 1.01700E+03
 3.11874E+02	 1.01423E+03
 3.16088E+02	 9.77072E+02
 3.20298E+02	 8.92514E+02
 3.24506E+02	 7.57558E+02
 3.28711E+02	 6.33729E+02
 3.32913E+02	 5.50915E+02
 3.37112E+02	 5.32044E+02
 3.41308E+02	 5.03083E+02
 3.45501E+02	 4.32983E+02
 3.49691E+02	 3.48595E+02
 3.53879E+02	 2.78596E+02
 3.58063E+02	 2.29278E+02
 3.62244E+02	 1.88999E+02
 3.66423E+02	 1.44442E+02
 3.70598E+02	 1.07035E+02
 3.74771E+02	 7.24287E+01
 3.78941E+02	 7.33071E+01
 3.83108E+02	 9.63330E+01
 3.87272E+02	 9.03882E+01
 3.91433E+02	 8.68438E+01
 3.95591E+02	 8.65728E+01
 3.99746E+02	 8.56025E+01
 4.03898E+02	 7.58276E+01
 4.08048E+02	 7.58921E+01
 4.12194E+02	 8.21343E+01
 4.16338E+02	 8.16670E+01
 4.20479E+02	 6.92813E+01
 4.24617E+02	 7.79775E+01
 4.28752E+02	 5.99521E+01
 4.32884E+02	 2.72617E+01
 4.37013E+02	 2.91357E+00
 4.41140E+02	-3.75493E+01
 4.45263E+02	-4.51021E+01
 4.49384E+02	-3.15029E+01
 4.53502E+02	-1.73887E+01
 4.57617E+02	 1.51118E+01
 4.61729E+02	 2.32681E+01
 4.65838E+02	 3.18955E+01
 4.69945E+02	 2.34438E+01
 4.74048E+02	 3.41431E+01
 4.78149E+02	 5.15703E+01
 4.82247E+02	 6.62549E+00
 4.86342E+02	-4.01182E+01
 4.90434E+02	-4.17173E+01
 4.94524E+02	-1.94434E+01
 4.98610E+02	 1.84961E+01
 5.02694E+02	 4.51655E+01
 5.06775E+02	 4.17100E+01
 5.10853E+02	-3.12227E+01
 5.14929E+02	-7.05210E+01
 5.19001E+02	-3.19380E+01
 5.23071E+02	 2.43101E+01
 5.27138E+02	 5.43623E+01
 5.31202E+02	 4.53013E+01
 5.35263E+02	 8.11035E-01
 5.39322E+02	-5.48091E+01
 5.43377E+02	-6.36455E+01
 5.47430E+02	-1.29131E+01
 5.51480E+02	 3.13325E+01
 5.55528E+02	 3.67266E+01
 5.59572E+02	 1.93394E+01
 5.63614E+02	-5.94189E+00
 5.67653E+02	-1.67480E+01
 5.71689E+02	 1.06860E+01
 5.75723E+02	 3.46724E+01
 5.79753E+02	 2.39351E+01
 5.83781E+02	-8.68311E+00
 5.87806E+02	-4.18428E+01
 5.91829E+02	-4.69644E+01
 5.95848E+02	-2.75645E+01
 5.99865E+02	-4.70703E-01
 6.03879E+02	-5.59912E+00
 6.07891E+02	-2.97397E+01
 6.11899E+02	-4.46846E+01
 6.15905E+02	-4.39941E+01
 6.19908E+02	-9.12988E+00
 6.23908E+02	 3.08892E+01
 6.27906E+02	 7.00752E+01
 6.31901E+02	 1.31543E+02
 6.35893E+02	 1.78993E+02
 6.39882E+02	 1.85104E+02
 6.43869E+02	 1.86230E+02
 6.47853E+02	 1.95858E+02
 6.51834E+02	 1.77348E+02
 6.55813E+02	 1.44842E+02
 6.59789E+02	 1.06566E+02
 6.63762E+02	 7.67515E+01
 6.67732E+02	 5.47437E+01
 6.71700E+02	 7.84365E+01
 6.75665E+02	 1.37344E+02
 6.79627E+02	 1.68638E+02
 6.83587E+02	 1.64226E+02
 6.87544E+02	 1.37589E+02
 6.91498E+02	 1.13095E+02
 6.95449E+02	 1.14743E+02
 6.99398E+02	 1.06706E+02
 7.03344E+02	 1.18016E+02
 7.07288E+02	 1.12803E+02
 7.11228E+02	 8.72290E+01
 7.15166E+02	 6.24414E+01
 7.19102E+02	 5.27129E+01
 7.23034E+02	 4.33643E+01
 7.26965E+02	 1.06934E-01
 7.30892E+02	-4.77588E+01
 7.34817E+02	-8.22222E+01
 7.38739E+02	-9.93740E+01
 7.42658E+02	-5.98491E+01
 7.46575E+02	 7.23486E+00
 7.50489E+02	 6.88564E+01
 7.54400E+02	 8.12876E+01
 7.58309E+02	 4.18623E+01
 7.62215E+02	-1.13921E+01
 7.66119E+02	-5.77485E+01
 7.70019E+02	-8.43711E+01
 7.73918E+02	-4.80806E+01
 7.77813E+02	 1.76973E+01
 7.81706E+02	 7.95415E+01
 7.85596E+02	 9.28340E+01
 7.89484E+02	 7.23657E+01
 7.93369E+02	 3.90249E+01
 7.97251E+02	 1.71143E+01
 8.01131E+02	 6.11724E+01
 8.05008E+02	 1.34329E+02
 8.08883E+02	 1.91488E+02
 8.12755E+02	 2.20395E+02
 8.16624E+02	 1.72173E+02
 8.20491E+02	 1.04927E+02
 8.24355E+02	 9.71250E+01
 8.28217E+02	 1.11396E+02
 8.32075E+02	 1.45538E+02
 8.35932E+02	 1.88914E+02
 8.39785E+02	 2.64465E+02
 8.43637E+02	 2.94318E+02
 8.47485E+02	 2.86624E+02
 8.51331E+02	 2.47041E+02
 8.55174E+02	 1.80463E+02
 8.59015E+02	 1.04851E+02
 8.62853E+02	 7.43330E+01
 8.66689E+02	 9.37739E+01
 8.70522E+02	 1.00814E+02
 8.74352E+02	 4.13013E+01
 8.78180E+02	-3.07358E+01
 8.82006E+02	-8.05000E+01
 8.85828E+02	-7.00713E+01
 8.89648E+02	-3.89082E+01
 8.93466E+02	-1.03027E-01
 8.97281E+02	 3.10942E+01
 9.01094E+02	 7.58838E+00
 9.04904E+02	-4.58203E+00
 9.08711E+02	 2.63340E+01
 9.12516E+02	 6.17095E+01
 9.16318E+02	 6.18164E+01
 9.20118E+02	 4.32681E+01
 9.23915E+02	 2.33770E+01
 9.27710E+02	-2.08838E+00
 9.31502E+02	-1.09604E+01
 9.35292E+02	 5.75732E+00
 9.39079E+02	 2.52720E+01
 9.42863E+02	 4.93945E+01
 9.46645E+02	 6.34717E+01
 9.50425E+02	 4.99673E+01
 9.54202E+02	-7.00977E+00
 9.57976E+02	-5.65273E+01
 9.61748E+02	-5.64814E+01
 9.65517E+02	-2.70996E+01
 9.69284E+02	-1.13159E+01
 9.73049E+02	-1.39380E+01
 9.76811E+02	-3.64624E+01
 9.80570E+02	-6.37280E+01
 9.84327E+02	-2.54355E+01
 9.88081E+02	 6.43198E+01
 9.91833E+02	 1.56398E+02
 9.95583E+02	 2.09774E+02
 9.99329E+02	 2.30127E+02
 1.00307E+03	 2.29425E+02
 1.00682E+03	 1.75413E+02
 1.01056E+03	 1.03809E+02
 1.01429E+03	 5.85059E+01
 1.01803E+03	 3.64199E+01
 1.02176E+03	 4.04868E+01
 1.02549E+03	 5.25903E+01
 1.02922E+03	 4.02549E+01
 1.03294E+03	-3.41846E+00
 1.03666E+03	-3.75972E+01
 1.04038E+03	-2.95918E+01
 1.04410E+03	 1.97412E+00
 1.04781E+03	 1.84526E+01
 1.05153E+03	 2.23271E+01
 1.05524E+03	 4.41162E+00
 1.05894E+03	-2.36348E+01
 1.06265E+03	-1.98921E+01
 1.06635E+03	-2.07056E+01
 1.07005E+03	-1.97764E+01
 1.07375E+03	-2.47217E+00
 1.07744E+03	 2.07246E+01
 1.08114E+03	 3.81699E+01
 1.08483E+03	 1.33213E+01
 1.08851E+03	-2.14814E+01
 1.09220E+03	-5.31274E+01
 1.09588E+03	-5.96514E+01
 1.09956E+03	-3.59609E+01
 1.10324E+03	-2.27632E+01
 1.10692E+03	-1.92344E+01
 1.11059E+03	-7.78613E+00
 1.11426E+03	 7.56152E+00
 1.11793E+03	 5.99766E+01
 1.12159E+03	 1.10604E+02
 1.12526E+03	 1.38061E+02
 1.12892E+03	 1.30646E+02
 1.13258E+03	 1.51692E+02
 1.13623E+03	 2.00712E+02
 1.13989E+03	 2.57455E+02
 1.14354E+03	 3.27719E+02
 1.14719E+03	 3.97495E+02
 1.15084E+03	 4.11989E+02
 1.15448E+03	 3.77233E+02
 1.15812E+03	 3.21288E+02
 1.16176E+03	 2.48118E+02
 1.16540E+03	 1.70425E+02
 1.16903E+03	 1.33607E+02
 1.17267E+03	 1.39818E+02
 1.17630E+03	 1.63545E+02
 1.17992E+03	 1.56989E+02
 1.18355E+03	 1.40029E+02
 1.18717E+03	 1.16387E+02
 1.19079E+03	 6.91729E+01
 1.19441E+03	 4.21460E+01
 1.19803E+03	 3.91055E+01
 1.20164E+03	 4.32876E+01
 1.20525E+03	 3.49380E+01
 1.20886E+03	 9.32715E+00
 1.21246E+03	 7.81250E-03
 1.21607E+03	 1.24507E+01
 1.21967E+03	 1.64395E+01
 1.22327E+03	 3.24146E+01
 1.22687E+03	 5.34438E+01
 1.23046E+03	 2.40356E+01
 1.23405E+03	-1.99834E+01
 1.23764E+03	-4.61792E+01
 1.24123E+03	-4.17832E+01
 1.24482E+03	-3.12534E+01
 1.24840E+03	-3.75796E+01
 1.25198E+03	-1.65381E+01
 1.25556E+03	 1.68066E+01
 1.25913E+03	 2.86396E+01
 1.26271E+03	 4.64697E+01
 1.26628E+03	 4.10693E+01
 1.26985E+03	 9.67480E+00
 1.27341E+03	-2.32231E+01
 1.27698E+03	-2.38677E+01
 1.28054E+03	 1.41841E+01
 1.28410E+03	 4.38545E+01
 1.28766E+03	 3.05205E+01
 1.29121E+03	-5.01807E+00
 1.29476E+03	-2.12036E+01
 1.29831E+03	-3.00459E+01
 1.30186E+03	-1.40088E+00
 1.30541E+03	 2.51782E+01
 1.30895E+03	 3.74541E+01
 1.31249E+03	 1.78818E+01
 1.31603E+03	-4.31348E+00
 1.31957E+03	-1.14546E+01
 1.32310E+03	-3.83691E+00
 1.32663E+03	 7.32666E+00
 1.33016E+03	 6.14209E+00
 1.33369E+03	-2.42070E+01
 1.33722E+03	-5.17998E+01
 1.34074E+03	-4.36782E+01
 1.34426E+03	-1.63315E+01
 1.34778E+03	 1.99907E+01
 1.35129E+03	 5.62075E+01
 1.35481E+03	 8.09502E+01
 1.35832E+03	 8.49165E+01
 1.36183E+03	 8.33936E+01
 1.36534E+03	 6.47021E+01
 1.36884E+03	 3.45298E+01
 1.37234E+03	-7.49512E+00
 1.37584E+03	-2.55410E+01
 1.37934E+03	-2.31475E+01
 1.38284E+03	-1.25469E+01
 1.38633E+03	 1.46982E+01
 1.38982E+03	 3.04731E+01
 1.39331E+03	 2.56143E+01
 1.39680E+03	 3.68799E+00
 1.40028E+03	-2.87549E+01
 1.40376E+03	-5.94399E+01
 1.40724E+03	-7.16050E+01
 1.41072E+03	-5.78960E+01
 1.41420E+03	-2.10571E+01
 1.41767E+03	-2.18945E+00
 1.42114E+03	 2.14746E+01
 1.42461E+03	 3.48550E+01
 1.42808E+03	 3.06299E+01
 1.43154E+03	 2.83491E+01
 1.43500E+03	 3.93809E+01
 1.43846E+03	 4.30591E+01
 1.44192E+03	 5.00596E+01
 1.44537E+03	 2.77480E+01
 1.44883E+03	 6.71240E+00
 1.45228E+03	-1.36602E+01
 1.45573E+03	-8.94141E+00
 1.45917E+03	 1.46714E+01
 1.46262E+03	 2.62051E+01
 1.46606E+03	 4.09619E+01
 1.46950E+03	 6.80801E+01
 1.47294E+03	 7.50493E+01
 1.47637E+03	 9.36274E+01
 1.47981E+03	 1.08869E+02
 1.48324E+03	 1.13332E+02
 1.48667E+03	 9.92329E+01
 1.49009E+03	 7.59990E+01
 1.49352E+03	 5.12856E+01
 1.49694E+03	 1.92734E+01
 1.50036E+03	-1.82705E+01
 1.50378E+03	-2.18833E+01
 1.50720E+03	-9.38867E+00
 1.51061E+03	-7.92480E+00
 1.51402E+03	 7.13379E+00
 1.51743E+03	 5.38931E+01
 1.52084E+03	 1.00735E+02
 1.52424E+03	 1.48728E+02
 1.52764E+03	 2.06555E+02
 1.53105E+03	 2.42183E+02
 1.53444E+03	 2.07494E+02
 1.53784E+03	 1.75410E+02
 1.54123E+03	 1.63776E+02
 1.54463E+03	 1.49693E+02
 1.54802E+03	 1.49293E+02
 1.55140E+03	 1.70869E+02
 1.55479E+03	 1.85296E+02
 1.55817E+03	 1.85111E+02
 1.56155E+03	 1.90161E+02
 1.56493E+03	 1.87744E+02
 1.56831E+03	 1.58968E+02
 1.57168E+03	 1.34203E+02
 1.57506E+03	 1.21992E+02
 1.57843E+03	 1.17702E+02
 1.58180E+03	 1.22251E+02
 1.58516E+03	 1.06089E+02
 1.58853E+03	 8.23931E+01
 1.59189E+03	 6.81968E+01
 1.59525E+03	 4.72993E+01
 1.59861E+03	 3.15527E+01
 1.60196E+03	 1.63340E+01
 1.60531E+03	 5.83643E+00
 1.60867E+03	-1.01470E+01
 1.61202E+03	-3.97900E+00
 1.61536E+03	 3.38477E+00
 1.61871E+03	-1.16162E+00
 1.62205E+03	 1.49414E+00
 1.62539E+03	 1.65806E+01
 1.62873E+03	 7.07568E+00
 1.63207E+03	-7.62109E+00
 1.63540E+03	 1.27832E+00
 1.63873E+03	 6.34668E+00
 1.64206E+03	 1.09424E+00
 1.64539E+03	-3.44043E+00
 1.64872E+03	-4.93018E+00
 1.65204E+03	-1.36719E-01
 1.65536E+03	 7.95117E+00
 1.65868E+03	 8.15771E+00
 1.66200E+03	 5.41309E+00
 1.66532E+03	 3.74512E-01
 1.66863E+03	 3.17676E+00
 1.67194E+03	 2.71826E+00
 1.67525E+03	 1.26904E+00
 1.67856E+03	-2.10645E+00
 1.68186E+03	-1.21143E+01
 1.68516E+03	-1.55190E+01
 1.68847E+03	-1.09800E+01
 1.69176E+03	-4.01270E+00
 1.69506E+03	 2.38086E+00
 1.69836E+03	 2.02236E+01
 1.70165E+03	 2.43452E+01
 1.70494E+03	 8.49854E+00
 1.70823E+03	-1.07002E+01
 1.71151E+03	-1.83447E+01
 1.71480E+03	-1.77334E+01
 1.71808E+03	-1.01855E+00
 1.72136E+03	 1.04922E+01
 1.72464E+03	 1.18564E+01
 1.72792E+03	 2.68506E+00
 1.73119E+03	-1.08643E+00
 1.73446E+03	 7.43115E+00
 1.73773E+03	 1.14663E+01
 1.74100E+03	 5.52295E+00
 1.74427E+03	-6.08008E+00
 1.74753E+03	-1.75718E+01
 1.75079E+03	-1.55210E+01
 1.75405E+03	-6.18018E+00
 1.75731E+03	 1.17129E+01
 1.76057E+03	 1.94282E+01
 1.76382E+03	 1.76914E+01
 1.76707E+03	 9.34375E+00
 1.77032E+03	 5.88232E+00
 1.77357E+03	 5.60156E+00
 1.77681E+03	 6.95898E+00
 1.78006E+03	 7.31152E+00
 1.78330E+03	 7.06055E-01
 1.78654E+03	-1.25918E+01
 1.78978E+03	-1.07451E+01
 1.79301E+03	-2.74316E+00
 1.79625E+03	-3.75977E-02
 1.79948E+03	-2.10010E+00
 1.80271E+03	-8.66113E+00
 1.80593E+03	-4.49268E+00
 1.80916E+03	 5.45459E+00
 1.81238E+03	 1.80767E+01
 1.81560E+03	 2.52144E+01
 1.81882E+03	 1.98525E+01
 1.82204E+03	 1.58691E-01
 1.82526E+03	-1.00137E+01
 1.82847E+03	-1.02124E+01
 1.83168E+03	 1.23779E+00
 1.83489E+03	 4.39941E+00
 1.83810E+03	 1.01045E+01
 1.84130E+03	 1.21040E+01
 1.84451E+03	 5.56738E+00
 1.84771E+03	-3.45703E+00
 1.85091E+03	-9.08203E+00
 1.85411E+03	-8.10742E+00
 1.85730E+03	-6.42578E-01
 1.86049E+03	 1.08198E+01
 1.86369E+03	 1.62651E+01
 1.86688E+03	 1.51558E+01
 1.87006E+03	 1.73760E+01
 1.87325E+03	 1.69482E+01
 1.87643E+03	 1.23325E+01
 1.87961E+03	 9.13721E+00
 1.88279E+03	 1.03501E+01
 1.88597E+03	 4.19434E+00
 1.88915E+03	-6.71533E+00
 1.89232E+03	-6.23535E+00
 1.89549E+03	-1.95020E+00
 1.89866E+03	 2.51416E+00
 1.90183E+03	 8.87598E+00
 1.90500E+03	 1.30825E+01
 1.90816E+03	 1.05615E+01
 1.91132E+03	-5.30273E-01
 1.91448E+03	-3.77881E+00
 1.91764E+03	-2.21582E+00
 1.92080E+03	-3.33496E-01
 1.92395E+03	 3.12891E+00
 1.92710E+03	 5.85498E+00
 1.93025E+03	 1.14409E+01
 1.93340E+03	 1.72388E+01
 1.93655E+03	 1.84888E+01
 1.93969E+03	 1.31567E+01
 1.94284E+03	 4.38135E+00
 1.94598E+03	-1.46484E-01
 1.94912E+03	-8.85254E-01
 1.95225E+03	 1.75244E+00
 1.95539E+03	-9.08203E-01
 1.95852E+03	-1.74463E+00
 1.96165E+03	-1.62305E+00
 1.96478E+03	-5.47363E-01
 1.96791E+03	 5.49316E+00
 1.97103E+03	 1.23535E+01
 1.97416E+03	 1.40444E+01
 1.97728E+03	 1.28438E+01
 1.98040E+03	 5.01514E+00
 1.98352E+03	-9.07715E-01
 1.98663E+03	-2.72607E+00
 1.98975E+03	-2.09375E+00
 1.99286E+03	 5.77637E-01
 1.99597E+03	 3.37988E+00
 1.99908E+03	 5.95801E+00
 2.00218E+03	 6.90381E+00
 2.00529E+03	 1.26548E+01
 2.00839E+03	 1.61362E+01
 2.01149E+03	 1.32275E+01
 2.01459E+03	 2.29736E+00
 2.01769E+03	-1.78711E+00
 2.02078E+03	 2.86133E-01
 2.02387E+03	 2.30859E+00
 2.02696E+03	 5.23096E+00
 2.03005E+03	 3.64014E+00
 2.03314E+03	-5.07959E+00
 2.03623E+03	-5.09131E+00
 2.03931E+03	-1.75098E+00
 2.04239E+03	 2.91553E+00
 2.04547E+03	 3.19092E+00
 2.04855E+03	 3.90088E+00
 2.05163E+03	 6.97266E+00
 2.05470E+03	-7.82715E-01
 2.05777E+03	-4.19385E+00
 2.06084E+03	-2.82373E+00
 2.06391E+03	-2.57910E+00
 2.06698E+03	 1.13281E+00
 2.07004E+03	 6.68262E+00
 2.07310E+03	 7.90576E+00
 2.07617E+03	 2.67188E+00
 2.07923E+03	-2.35742E+00
 2.08228E+03	 1.07080E+00
 2.08534E+03	-5.66406E-02
 2.08839E+03	-1.03662E+00
 2.09144E+03	-2.13330E+00
 2.09449E+03	-6.21777E+00
 2.09754E+03	-5.32422E+00
 2.10059E+03	-3.76318E+00
 2.10363E+03	-4.77539E-01
 2.10667E+03	 4.68652E+00
 2.10972E+03	 8.60840E+00
 2.11275E+03	 1.28398E+01
 2.11579E+03	 1.43281E+01
 2.11883E+03	 1.24219E+01
 2.12186E+03	 1.19429E+01
 2.12489E+03	 1.58516E+01
 2.12792E+03	 2.35088E+01
 2.13095E+03	 3.02275E+01
 2.13397E+03	 2.65410E+01
 2.13700E+03	 2.16626E+01
 2.14002E+03	 2.26289E+01
 2.14304E+03	 2.63062E+01
 2.14606E+03	 3.38340E+01
 2.14908E+03	 3.14136E+01
 2.15209E+03	 1.70288E+01
 2.15511E+03	 4.51123E+00
 2.15812E+03	-2.67480E+00
 2.16113E+03	-4.21875E-01
 2.16413E+03	 3.81299E+00
 2.16714E+03	 3.25342E+00
 2.17014E+03	-1.09912E+00
 2.17315E+03	-4.66211E+00
 2.17615E+03	-3.15088E+00
 2.17915E+03	 2.70703E+00
 2.18214E+03	 3.29590E+00
 2.18514E+03	 3.71387E+00
 2.18813E+03	 6.45361E+00
 2.19112E+03	 6.91113E+00
 2.19411E+03	 6.16748E+00
 2.19710E+03	 2.28223E+00
 2.20009E+03	-1.06689E+00
 2.20307E+03	-2.59277E-01
 2.20605E+03	 3.50098E-01
 2.20903E+03	 2.07617E+00
 2.21201E+03	 1.71777E+00
 2.21499E+03	 2.78320E-01
 2.21796E+03	-2.97705E+00
 2.22094E+03	-4.34082E+00
 2.22391E+03	-4.53613E-01
 2.22688E+03	 4.81055E+00
 2.22985E+03	 5.47461E+00
 2.23281E+03	 3.58350E+00
 2.23578E+03	 6.39160E-01
 2.23874E+03	-2.90283E+00
 2.24170E+03	-2.59375E+00
 2.24466E+03	 1.29297E+00
 2.24762E+03	 6.30859E+00
 2.25058E+03	 5.15723E+00
 2.25353E+03	 2.45947E+00
 2.25648E+03	 1.43555E-01
 2.25943E+03	-1.89160E+00
 2.26238E+03	-2.06738E+00
 2.26533E+03	-1.80615E+00
 2.26827E+03	-1.82324E+00
 2.27122E+03	 3.09863E+00
 2.27416E+03	 5.69531E+00
 2.27710E+03	 4.93408E+00
 2.28004E+03	 8.28613E-01
 2.28297E+03	-6.61621E-01
 2.28591E+03	-2.43506E+00
 2.28884E+03	-2.01270E+00
 2.29177E+03	 1.29639E+00
 2.29470E+03	 6.21387E+00
 2.29763E+03	 9.41992E+00
 2.30055E+03	 1.05835E+01
 2.30348E+03	 6.46826E+00
 2.30640E+03	-1.05859E+00
 2.30932E+03	-5.36279E+00
 2.31224E+03	-3.64258E+00
 2.31516E+03	 4.88281E-04
 2.31807E+03	 4.39551E+00
 2.32099E+03	 4.53174E+00
 2.32390E+03	 1.93848E+00
 2.32681E+03	-1.51660E+00
 2.32972E+03	-2.19531E+00
 2.33262E+03	-1.14648E+00
 2.33553E+03	 4.49219E-02
 2.33843E+03	 6.19141E-01
 2.34133E+03	 2.31250E+00
 2.34423E+03	 2.96240E+00
 2.34713E+03	 1.88965E+00
 2.35003E+03	 1.09082E+00
 2.35292E+03	 3.14893E+00
 2.35581E+03	 2.43994E+00
 2.35871E+03	 1.46240E-01
 2.36160E+03	-1.44116E+00
 2.36448E+03	-1.38306E+00
 2.36737E+03	-1.20947E+00
 2.37025E+03	 2.19971E-01
 2.37314E+03	 2.16162E+00
 2.37602E+03	 8.05176E-01
 2.37890E+03	-1.81885E+00
 2.38177E+03	-6.28418E-01
 2.38465E+03	 1.30444E+00
 2.38752E+03	 1.71997E+00
 2.39040E+03	 3.19629E+00
 2.39327E+03	 1.94312E+00
 2.39614E+03	-2.12402E-01
 2.39900E+03	-5.33936E-01
 2.40187E+03	-3.65234E-01
 2.40473E+03	-4.44092E-01
 2.40760E+03	 3.04541E+00
 2.41046E+03	 3.01245E+00
 2.41332E+03	 2.30664E+00
 2.41617E+03	-1.19360E+00
 2.41903E+03	-1.81128E+00
 2.42188E+03	-1.84961E+00
 2.42473E+03	-2.33398E-01
 2.42758E+03	 1.26489E+00
 2.43043E+03	 1.19604E+00
 2.43328E+03	-1.62500E+00
 2.43613E+03	-1.16309E+00
 2.43897E+03	-4.39453E-01
 2.44181E+03	 1.91602E+00
 2.44465E+03	 1.90283E+00
 2.44749E+03	 1.13159E+00
 2.45033E+03	-1.07715E+00
 2.45316E+03	-5.06104E-01
 2.45600E+03	 3.10425E+00
 2.45883E+03	 2.73486E+00
 2.46166E+03	 7.74658E-01
 2.46449E+03	-7.26318E-01
 2.46732E+03	-2.46509E+00
 2.47014E+03	-7.93945E-01
 2.47296E+03	 2.61230E-02
 2.47579E+03	 2.03247E+00
 2.47861E+03	 4.35303E-01
 2.48143E+03	-3.37427E+00
 2.48424E+03	-1.24634E+00
 2.48706E+03	 1.20898E+00
 2.48987E+03	 3.25024E+00
 2.49268E+03	 5.01831E+00
 2.49549E+03	 3.62305E+00
 2.49830E+03	 7.86865E-01
 2.50111E+03	-8.58887E-01
 2.50392E+03	-1.38477E+00
 2.50672E+03	-5.55420E-01
 2.50952E+03	-1.11841E+00
 2.51232E+03	 4.63867E-02
 2.51512E+03	 1.92554E+00
 2.51792E+03	 2.59717E+00
 2.52072E+03	 2.06226E+00
 2.52351E+03	-1.00732E+00
 2.52630E+03	-4.02759E+00
 2.52909E+03	-3.76001E+00
 2.53188E+03	-1.71875E+00
 2.53467E+03	 1.75977E+00
 2.53746E+03	 3.27734E+00
 2.54024E+03	 2.91357E+00
 2.54302E+03	 1.84277E+00
 2.54580E+03	 1.50537E+00
 2.54858E+03	 2.47510E+00
 2.55136E+03	 2.24048E+00
 2.55414E+03	 8.56934E-02
 2.55691E+03	-2.07153E+00
 2.55968E+03	-2.44019E+00
 2.56246E+03	-8.91602E-01
 2.56523E+03	 1.94507E+00
 2.56799E+03	 2.74707E+00
 2.57076E+03	 5.40039E-01
 2.57353E+03	-1.22534E+00
 2.57629E+03	-1.86938E+00
 2.57905E+03	-1.67798E+00
 2.58181E+03	 6.66748E-01
 2.58457E+03	 2.32739E+00
 2.58733E+03	 2.42114E+00
 2.59008E+03	 2.90527E-01
 2.59283E+03	-1.47437E+00
 2.59559E+03	-1.12012E+00
 2.59834E+03	-3.05005E+00
 2.60109E+03	-8.67676E-01
 2.60383E+03	 2.50000E+00
 2.60658E+03	 2.99683E+00
 2.60932E+03	 3.90332E+00
 2.61207E+03	 3.26904E-01
 2.61481E+03	-4.92188E-01
 2.61755E+03	-1.18408E+00
 2.62028E+03	-1.15552E+00
 2.62302E+03	 1.62817E+00
 2.62575E+03	-3.56445E-02
 2.62849E+03	 5.54199E-02
 2.63122E+03	-8.89648E-01
 2.63395E+03	-2.02026E+00
 2.63668E+03	 6.57227E-01
 2.63940E+03	 3.76221E-01
 2.64213E+03	 9.09668E-01
 2.64485E+03	 1.68384E+00
 2.64757E+03	 1.51318E+00
 2.65029E+03	 4.84131E-01
 2.65301E+03	-6.73340E-01
 2.65573E+03	-1.47217E+00
 2.65845E+03	-2.42920E+00
 2.66116E+03	-1.98022E+00
 2.66387E+03	-1.70068E+00
 2.66658E+03	-2.11426E-01
 2.66929E+03	 2.51221E-01
 2.67200E+03	 1.08569E+00
 2.67471E+03	 3.64063E+00
 2.67741E+03	 3.02563E+00
 2.68012E+03	 2.54004E+00
 2.68282E+03	 7.40967E-01
 2.68552E+03	-2.23682E+00
 2.68822E+03	-1.57935E+00
 2.69091E+03	-6.56738E-01
 2.69361E+03	-2.27295E-01
 2.69630E+03	 3.36914E-02
 2.69899E+03	-2.94922E-01
 2.70168E+03	 6.65527E-01
 2.70437E+03	-1.38208E+00
 2.70706E+03	 2.26074E-01
 2.70975E+03	 2.52441E-01
 2.71243E+03	-4.38965E-01
 2.71511E+03	 6.78711E-01
 2.71780E+03	 2.25293E+00
 2.72048E+03	 2.57983E+00
 2.72315E+03	 7.86621E-01
 2.72583E+03	-4.15039E-01
 2.72851E+03	-1.43311E-01
 2.73118E+03	-1.05200E+00
 2.73385E+03	 3.88184E-01
 2.73652E+03	 1.28784E+00
 2.73919E+03	 2.58545E-01
 2.74186E+03	 1.58203E-01
 2.74453E+03	-3.55957E-01
 2.74719E+03	-2.19604E+00
 2.74985E+03	-2.38525E+00
 2.75251E+03	-2.11597E+00
 2.75517E+03	-9.90723E-01
 2.75783E+03	 1.48486E+00
 2.76049E+03	 1.48755E+00
 2.76315E+03	 2.14355E+00
 2.76580E+03	 1.28564E+00
 2.76845E+03	-7.98096E-01
 2.77110E+03	-1.09668E+00
 2.77375E+03	-1.51514E+00
 2.77640E+03	-6.75049E-01
 2.77905E+03	-9.34570E-01
 2.78169E+03	 1.15015E+00
 2.78433E+03	 3.62598E+00
 2.78698E+03	 3.54053E+00
 2.78962E+03	 1.08154E+00
 2.79226E+03	-2.17041E-01
 2.79489E+03	-2.63599E+00
 2.79753E+03	-3.28516E+00
 2.80016E+03	-9.35059E-02
 2.80280E+03	 1.37549E+00
 2.80543E+03	 1.18555E+00
 2.80806E+03	-1.15234E-01
 2.81068E+03	-8.53271E-01
 2.81331E+03	-9.24316E-01
 2.81594E+03	-9.87305E-01
 2.81856E+03	 5.15625E-01
 2.82118E+03	-3.19824E-01
 2.82380E+03	-1.32910E+00
 2.82642E+03	-3.33008E-01
 2.82904E+03	-1.64648E+00
 2.83166E+03	 1.63574E-02
 2.83427E+03	-1.28101E+00
 2.83689E+03	-7.75391E-01
 2.83950E+03	-8.64746E-01
 2.84211E+03	 8.52295E-01
 2.84472E+03	 2.59937E+00
 2.84732E+03	 2.50708E+00
 2.84993E+03	 2.39966E+00
 2.85253E+03	 1.38037E+00
 2.85514E+03	-6.87744E-01
 2.85774E+03	 5.21729E-01
 2.86034E+03	 4.20898E-01
 2.86294E+03	 1.05811E+00
 2.86553E+03	-7.34619E-01
 2.86813E+03	-2.48828E+00
 2.87072E+03	-3.59277E+00
 2.87332E+03	-3.48682E+00
 2.87591E+03	-1.85278E+00
 2.87850E+03	 1.35205E+00
 2.88109E+03	 4.24121E+00
 2.88367E+03	 4.28711E+00
 2.88626E+03	 2.23145E+00
 2.88884E+03	-1.85059E-01
 2.89142E+03	-1.94409E+00
 2.89401E+03	-3.01514E+00
 2.89659E+03	-4.28101E+00
 2.89916E+03	-2.76855E+00
 2.90174E+03	-1.96094E+00
 2.90432E+03	-5.35645E-01
 2.90689E+03	 1.76318E+00
 2.90946E+03	 2.76318E+00
 2.91203E+03	 3.03271E+00
 2.91460E+03	 8.77441E-01
 2.91717E+03	 4.07227E-01
 2.91974E+03	 1.71167E+00
 2.92230E+03	 1.70972E+00
 2.92486E+03	 1.59717E+00
 2.92743E+03	 1.59570E+00
 2.92999E+03	 1.20874E+00
 2.93255E+03	 6.37451E-01
 2.93510E+03	-2.19214E+00
 2.93766E+03	-2.97607E+00
 2.94021E+03	-3.50024E+00
 2.94277E+03	-2.80444E+00
 2.94532E+03	-7.39014E-01
 2.94787E+03	 2.66553E+00
 2.95042E+03	 3.82861E+00
 2.95297E+03	 2.49829E+00
 2.95551E+03	-4.56543E-02
 2.95806E+03	-8.34229E-01
 2.96060E+03	-1.08618E+00
 2.96314E+03	-2.50806E+00
 2.96568E+03	-7.07764E-01
 2.96822E+03	 1.12695E+00
 2.97076E+03	 1.78931E+00
 2.97330E+03	 1.77173E+00
 2.97583E+03	 8.61572E-01
 2.97837E+03	 5.21240E-01
 2.98090E+03	 3.33008E-01
 2.98343E+03	 6.86035E-02
 2.98596E+03	-2.05811E-01
 2.98849E+03	-1.41431E+00
 2.99101E+03	-2.85962E+00
 2.99354E+03	-3.49463E+00
 2.99606E+03	-2.24023E+00
 2.99858E+03	-4.11377E-01
 3.00110E+03	 6.91650E-01
 3.00362E+03	 3.52295E-01
 3.00614E+03	 2.68799E-01
 3.00866E+03	 6.54541E-01
 3.01117E+03	-1.70166E-01
 3.01369E+03	-1.13867E+00
 3.01620E+03	-1.11206E+00
 3.01871E+03	-1.31787E+00
 3.02122E+03	 1.60913E+00
 3.02373E+03	 3.70117E+00
 3.02623E+03	 4.76782E+00
 3.02874E+03	 4.31201E+00
 3.03124E+03	 2.60767E+00
 3.03374E+03	-1.05225E-01
 3.03625E+03	-1.69824E+00
 3.03875E+03	-2.33130E+00
 3.04124E+03	-1.38306E+00
 3.04374E+03	-2.73315E+00
 3.04624E+03	-1.22876E+00
 3.04873E+03	 9.44580E-01
 3.05122E+03	 1.51318E+00
 3.05371E+03	 1.46802E+00
 3.05620E+03	-2.21436E-01
 3.05869E+03	-5.82275E-01
 3.06118E+03	-4.76074E-01
 3.06367E+03	-4.47266E-01
 3.06615E+03	 1.85986E+00
 3.06863E+03	 1.71143E+00
 3.07111E+03	 1.10400E+00
 3.07359E+03	 5.48340E-01
 3.07607E+03	 6.20605E-01
 3.07855E+03	 1.70508E+00
 3.08103E+03	 4.07715E-01
 3.08350E+03	-4.77295E-01
 3.08598E+03	-1.00635E+00
 3.08845E+03	-1.40869E+00
 3.09092E+03	-7.70752E-01
 3.09339E+03	-6.73584E-01
 3.09586E+03	 1.86768E-01
 3.09832E+03	-8.79639E-01
 3.10079E+03	-1.62793E+00
