X-Axis	NPA w/ oil 10x (CRR) (SG) (Sub BG)
-3.97831E+02	 5.13965E+00
-3.93106E+02	 3.08203E+00
-3.88385E+02	 3.37158E-01
-3.83668E+02	-5.15381E-01
-3.78954E+02	-5.00732E-01
-3.74244E+02	 1.00171E+00
-3.69537E+02	 1.02832E+00
-3.64833E+02	-9.37500E-02
-3.60133E+02	-1.80005E+00
-3.55437E+02	-3.02612E+00
-3.50744E+02	-3.49658E+00
-3.46054E+02	-2.88623E+00
-3.41368E+02	-1.68604E+00
-3.36685E+02	 1.04980E+00
-3.32006E+02	 9.91699E-01
-3.27330E+02	 1.23975E+00
-3.22658E+02	 5.82275E-01
-3.17989E+02	 1.69531E+00
-3.13323E+02	 6.13525E-01
-3.08661E+02	-8.05664E-01
-3.04002E+02	 5.92529E-01
-2.99347E+02	 1.08032E+00
-2.94695E+02	 6.09863E-01
-2.90047E+02	 8.68652E-01
-2.85402E+02	 2.39990E-01
-2.80760E+02	 3.95264E-01
-2.76122E+02	-1.27979E+00
-2.71487E+02	 1.18018E+00
-2.66855E+02	 6.41357E-01
-2.62227E+02	-1.65942E+00
-2.57603E+02	-2.78125E+00
-2.52981E+02	-2.61157E+00
-2.48363E+02	-6.06689E-01
-2.43749E+02	 1.05688E+00
-2.39138E+02	 1.59644E+00
-2.34530E+02	 3.16895E-01
-2.29925E+02	-2.47998E+00
-2.25324E+02	-1.98193E+00
-2.20726E+02	-7.45361E-01
-2.16132E+02	 2.14917E+00
-2.11541E+02	 4.11011E+00
-2.06953E+02	 3.25830E+00
-2.02369E+02	 1.41797E+00
-1.97788E+02	-2.08252E-01
-1.93210E+02	 4.33350E-01
-1.88636E+02	 6.83105E-01
-1.84065E+02	-6.39648E-02
-1.79497E+02	 2.37549E-01
-1.74932E+02	-1.62622E+00
-1.70371E+02	-2.70630E+00
-1.65814E+02	-3.40479E+00
-1.61259E+02	-2.34692E+00
-1.56708E+02	-7.94678E-01
-1.52160E+02	 6.37939E-01
-1.47615E+02	 1.04712E+00
-1.43074E+02	 7.59277E-01
-1.38536E+02	 8.34961E-02
-1.34001E+02	 1.82300E+00
-1.29470E+02	 2.78101E+00
-1.24942E+02	 3.19214E+00
-1.20417E+02	 1.11548E+00
-1.15896E+02	-2.37427E+00
-1.11377E+02	-5.41431E+00
-1.06862E+02	-5.10107E+00
-1.02350E+02	-3.84155E+00
-9.78419E+01	-1.66675E+00
-9.33366E+01	-8.90625E-01
-8.88346E+01	-6.87256E-01
-8.43359E+01	 2.76855E-01
-7.98404E+01	 6.87012E-01
-7.53481E+01	 1.13647E+00
-7.08591E+01	 1.53076E+00
-6.63733E+01	 1.01221E+00
-6.18908E+01	 1.86182E+00
-5.74114E+01	 3.05420E-01
-5.29353E+01	-4.21289E+00
-4.84625E+01	-6.85254E+00
-4.39928E+01	-5.59302E+00
-3.95264E+01	-1.90259E+00
-3.50632E+01	 2.08154E+00
-3.06031E+01	 4.94727E+00
-2.61463E+01	-1.51704E+01
-2.16927E+01	-2.46084E+01
-1.72423E+01	-1.84512E+01
-1.27951E+01	 1.15269E+01
-8.35111E+00	 5.05327E+01
-3.91029E+00	 9.52944E+01
 5.27351E-01	 1.16061E+02
 4.96181E+00	 9.68643E+01
 9.39308E+00	 6.52041E+01
 1.38212E+01	 4.04873E+01
 1.82461E+01	-1.12793E+00
 2.26679E+01	-4.77510E+01
 2.70865E+01	-5.25127E+01
 3.15019E+01	-1.02568E+02
 3.59141E+01	-8.05444E+01
 4.03233E+01	 3.77290E+01
 4.47292E+01	 8.52197E+00
 4.91320E+01	-9.12568E+01
 5.35317E+01	 7.73567E+02
 5.79282E+01	 2.18125E+03
 6.23216E+01	 3.74163E+03
 6.67118E+01	 5.24619E+03
 7.10989E+01	 6.56263E+03
 7.54829E+01	 7.47930E+03
 7.98637E+01	 7.97948E+03
 8.42415E+01	 8.17136E+03
 8.86161E+01	 8.17901E+03
 9.29876E+01	 7.95710E+03
 9.73559E+01	 7.56249E+03
 1.01721E+02	 7.12823E+03
 1.06083E+02	 6.66576E+03
 1.10442E+02	 6.22879E+03
 1.14798E+02	 5.89289E+03
 1.19151E+02	 5.62356E+03
 1.23501E+02	 5.32589E+03
 1.27848E+02	 4.96910E+03
 1.32191E+02	 4.64730E+03
 1.36532E+02	 4.42021E+03
 1.40869E+02	 4.24811E+03
 1.45203E+02	 4.05788E+03
 1.49535E+02	 3.84303E+03
 1.53863E+02	 3.54690E+03
 1.58188E+02	 3.19396E+03
 1.62510E+02	 2.92876E+03
 1.66829E+02	 2.73199E+03
 1.71145E+02	 2.58361E+03
 1.75458E+02	 2.41777E+03
 1.79768E+02	 2.24229E+03
 1.84074E+02	 2.10849E+03
 1.88378E+02	 2.01149E+03
 1.92679E+02	 1.94495E+03
 1.96976E+02	 1.88142E+03
 2.01271E+02	 1.79092E+03
 2.05562E+02	 1.67711E+03
 2.09851E+02	 1.55931E+03
 2.14136E+02	 1.52043E+03
 2.18419E+02	 1.58338E+03
 2.22698E+02	 1.72132E+03
 2.26975E+02	 1.84426E+03
 2.31248E+02	 1.98581E+03
 2.35519E+02	 2.08732E+03
 2.39786E+02	 2.11533E+03
 2.44050E+02	 2.13828E+03
 2.48312E+02	 2.15668E+03
 2.52570E+02	 2.17075E+03
 2.56825E+02	 2.17640E+03
 2.61078E+02	 2.14739E+03
 2.65327E+02	 2.09215E+03
 2.69574E+02	 1.97990E+03
 2.73817E+02	 1.91892E+03
 2.78057E+02	 1.89104E+03
 2.82295E+02	 1.80453E+03
 2.86529E+02	 1.69411E+03
 2.90761E+02	 1.54756E+03
 2.94989E+02	 1.37988E+03
 2.99215E+02	 1.23405E+03
 3.03438E+02	 1.16349E+03
 3.07657E+02	 1.16127E+03
 3.11874E+02	 1.15235E+03
 3.16088E+02	 1.11406E+03
 3.20298E+02	 1.05154E+03
 3.24506E+02	 9.56064E+02
 3.28711E+02	 8.59541E+02
 3.32913E+02	 7.99755E+02
 3.37112E+02	 8.01051E+02
 3.41308E+02	 7.79727E+02
 3.45501E+02	 7.33598E+02
 3.49691E+02	 6.77417E+02
 3.53879E+02	 6.06216E+02
 3.58063E+02	 5.36752E+02
 3.62244E+02	 4.70604E+02
 3.66423E+02	 4.18783E+02
 3.70598E+02	 3.85234E+02
 3.74771E+02	 3.71130E+02
 3.78941E+02	 3.71523E+02
 3.83108E+02	 3.39201E+02
 3.87272E+02	 2.80457E+02
 3.91433E+02	 2.60767E+02
 3.95591E+02	 2.58042E+02
 3.99746E+02	 2.79099E+02
 4.03898E+02	 2.92521E+02
 4.08048E+02	 2.75899E+02
 4.12194E+02	 2.35503E+02
 4.16338E+02	 1.89731E+02
 4.20479E+02	 1.46512E+02
 4.24617E+02	 1.26179E+02
 4.28752E+02	 1.02176E+02
 4.32884E+02	 9.33848E+01
 4.37013E+02	 8.23994E+01
 4.41140E+02	 4.19111E+01
 4.45263E+02	-1.05737E+01
 4.49384E+02	-4.56885E+01
 4.53502E+02	-5.53296E+01
 4.57617E+02	-2.18721E+01
 4.61729E+02	 1.86416E+01
 4.65838E+02	 5.21938E+01
 4.69945E+02	 3.59727E+01
 4.74048E+02	 1.49854E+00
 4.78149E+02	-1.80073E+01
 4.82247E+02	-3.83184E+01
 4.86342E+02	-3.68989E+01
 4.90434E+02	-1.99731E+01
 4.94524E+02	 1.59976E+01
 4.98610E+02	 4.87139E+01
 5.02694E+02	 5.57842E+01
 5.06775E+02	 4.97344E+01
 5.10853E+02	 1.89854E+01
 5.14929E+02	-1.68677E+01
 5.19001E+02	-3.28340E+01
 5.23071E+02	-2.36357E+01
 5.27138E+02	 4.82666E+00
 5.31202E+02	-3.29346E+00
 5.35263E+02	-3.21069E+01
 5.39322E+02	-6.24092E+01
 5.43377E+02	-6.33081E+01
 5.47430E+02	-4.88169E+01
 5.51480E+02	-2.44297E+01
 5.55528E+02	-1.82046E+01
 5.59572E+02	-2.30386E+01
 5.63614E+02	-1.58813E+01
 5.67653E+02	 9.17969E-01
 5.71689E+02	 2.51426E+01
 5.75723E+02	 2.64214E+01
 5.79753E+02	-7.44775E+00
 5.83781E+02	-3.76567E+01
 5.87806E+02	-3.16152E+01
 5.91829E+02	 2.66470E+01
 5.95848E+02	 9.13892E+01
 5.99865E+02	 1.37678E+02
 6.03879E+02	 1.48180E+02
 6.07891E+02	 9.48867E+01
 6.11899E+02	 3.28330E+01
 6.15905E+02	 2.68477E+01
 6.19908E+02	 8.20957E+01
 6.23908E+02	 1.40107E+02
 6.27906E+02	 1.83172E+02
 6.31901E+02	 1.99837E+02
 6.35893E+02	 1.66364E+02
 6.39882E+02	 1.11841E+02
 6.43869E+02	 1.02010E+02
 6.47853E+02	 1.19162E+02
 6.51834E+02	 1.17522E+02
 6.55813E+02	 9.31343E+01
 6.59789E+02	 8.36606E+01
 6.63762E+02	 7.60176E+01
 6.67732E+02	 8.28853E+01
 6.71700E+02	 1.15066E+02
 6.75665E+02	 1.50563E+02
 6.79627E+02	 1.61637E+02
 6.83587E+02	 1.36587E+02
 6.87544E+02	 9.86064E+01
 6.91498E+02	 8.10962E+01
 6.95449E+02	 7.89141E+01
 6.99398E+02	 6.48374E+01
 7.03344E+02	 5.23208E+01
 7.07288E+02	 3.52329E+01
 7.11228E+02	 1.76826E+01
 7.15166E+02	 5.57568E+00
 7.19102E+02	 2.21079E+01
 7.23034E+02	 5.39238E+01
 7.26965E+02	 4.47500E+01
 7.30892E+02	 2.82129E+00
 7.34817E+02	-3.33818E+01
 7.38739E+02	-6.61138E+01
 7.42658E+02	-5.59883E+01
 7.46575E+02	-2.76997E+01
 7.50489E+02	 1.02891E+01
 7.54400E+02	 2.80405E+01
 7.58309E+02	 6.49902E+00
 7.62215E+02	-6.65137E+00
 7.66119E+02	-1.88467E+01
 7.70019E+02	-1.70977E+01
 7.73918E+02	 5.09668E+00
 7.77813E+02	 3.01064E+01
 7.81706E+02	 4.63223E+01
 7.85596E+02	 6.09893E+01
 7.89484E+02	 6.81084E+01
 7.93369E+02	 7.12427E+01
 7.97251E+02	 8.57954E+01
 8.01131E+02	 1.21342E+02
 8.05008E+02	 1.56778E+02
 8.08883E+02	 1.79646E+02
 8.12755E+02	 1.92551E+02
 8.16624E+02	 1.93297E+02
 8.20491E+02	 1.91744E+02
 8.24355E+02	 2.62921E+02
 8.28217E+02	 3.64043E+02
 8.32075E+02	 4.44515E+02
 8.35932E+02	 4.96551E+02
 8.39785E+02	 4.97545E+02
 8.43637E+02	 4.26068E+02
 8.47485E+02	 3.10596E+02
 8.51331E+02	 1.89556E+02
 8.55174E+02	 9.68809E+01
 8.59015E+02	 1.99116E+01
 8.62853E+02	 2.64648E-01
 8.66689E+02	 3.39399E+01
 8.70522E+02	 4.34478E+01
 8.74352E+02	 1.44995E+01
 8.78180E+02	-1.57856E+01
 8.82006E+02	-3.99751E+01
 8.85828E+02	-2.31636E+01
 8.89648E+02	 4.90381E+00
 8.93466E+02	 2.14453E+01
 8.97281E+02	 8.18701E+00
 9.01094E+02	-2.42207E+01
 9.04904E+02	-1.83550E+01
 9.08711E+02	 3.19922E+00
 9.12516E+02	 3.37632E+01
 9.16318E+02	 3.93286E+01
 9.20118E+02	 9.12793E+00
 9.23915E+02	-3.23242E+01
 9.27710E+02	-4.76309E+01
 9.31502E+02	-3.40498E+01
 9.35292E+02	-1.26284E+01
 9.39079E+02	 5.17627E+00
 9.42863E+02	 1.42412E+01
 9.46645E+02	 2.19629E+00
 9.50425E+02	 3.71582E-01
 9.54202E+02	-7.78076E+00
 9.57976E+02	 1.41509E+01
 9.61748E+02	 3.34443E+01
 9.65517E+02	 4.20503E+01
 9.69284E+02	 2.20527E+01
 9.73049E+02	-1.99307E+01
 9.76811E+02	-4.50562E+01
 9.80570E+02	-4.26279E+01
 9.84327E+02	-1.54683E+01
 9.88081E+02	 2.92471E+01
 9.91833E+02	 5.51270E+01
 9.95583E+02	 6.14551E+01
 9.99329E+02	 4.48066E+01
 1.00307E+03	 3.29980E+01
 1.00682E+03	 1.11362E+01
 1.01056E+03	-2.59038E+01
 1.01429E+03	-3.96006E+01
 1.01803E+03	-1.60786E+01
 1.02176E+03	 1.74482E+01
 1.02549E+03	 4.42891E+01
 1.02922E+03	 4.69375E+01
 1.03294E+03	 1.16104E+01
 1.03666E+03	-3.01216E+01
 1.04038E+03	-3.02412E+01
 1.04410E+03	 2.72266E+00
 1.04781E+03	 2.34756E+01
 1.05153E+03	 2.56152E+01
 1.05524E+03	 7.80762E+00
 1.05894E+03	-1.11914E+01
 1.06265E+03	-1.99253E+01
 1.06635E+03	-3.18213E+01
 1.07005E+03	-2.97979E+01
 1.07375E+03	-1.63110E+01
 1.07744E+03	 5.31396E+00
 1.08114E+03	 3.72695E+01
 1.08483E+03	 3.87729E+01
 1.08851E+03	 2.89546E+01
 1.09220E+03	 1.84214E+01
 1.09588E+03	 1.57456E+01
 1.09956E+03	 2.18145E+01
 1.10324E+03	 1.25933E+01
 1.10692E+03	 7.70996E-01
 1.11059E+03	-1.76733E+01
 1.11426E+03	-2.73765E+01
 1.11793E+03	-1.66055E+01
 1.12159E+03	-8.25732E+00
 1.12526E+03	-4.44873E+00
 1.12892E+03	-3.41699E+00
 1.13258E+03	 7.09033E+00
 1.13623E+03	 1.33989E+01
 1.13989E+03	 1.84546E+01
 1.14354E+03	 3.00469E+01
 1.14719E+03	 4.55508E+01
 1.15084E+03	 7.12012E+01
 1.15448E+03	 8.80303E+01
 1.15812E+03	 9.14248E+01
 1.16176E+03	 7.36621E+01
 1.16540E+03	 3.29380E+01
 1.16903E+03	 1.11597E+01
 1.17267E+03	 7.59863E+00
 1.17630E+03	 2.71094E+01
 1.17992E+03	 2.46118E+01
 1.18355E+03	 1.03750E+01
 1.18717E+03	 2.37939E+00
 1.19079E+03	-6.56104E+00
 1.19441E+03	-7.11914E+00
 1.19803E+03	 1.01284E+01
 1.20164E+03	 1.36929E+01
 1.20525E+03	-5.44727E+00
 1.20886E+03	-3.16235E+01
 1.21246E+03	-3.78848E+01
 1.21607E+03	-2.29922E+01
 1.21967E+03	-1.44937E+01
 1.22327E+03	-2.80811E+00
 1.22687E+03	 2.22568E+01
 1.23046E+03	 2.69858E+01
 1.23405E+03	 3.55601E+01
 1.23764E+03	 3.79824E+01
 1.24123E+03	 3.20151E+01
 1.24482E+03	 3.02085E+01
 1.24840E+03	 2.47236E+01
 1.25198E+03	 5.02412E+01
 1.25556E+03	 9.41333E+01
 1.25913E+03	 1.33648E+02
 1.26271E+03	 1.58140E+02
 1.26628E+03	 1.46717E+02
 1.26985E+03	 1.17789E+02
 1.27341E+03	 8.19839E+01
 1.27698E+03	 4.66118E+01
 1.28054E+03	 4.65010E+01
 1.28410E+03	 6.33750E+01
 1.28766E+03	 7.52822E+01
 1.29121E+03	 5.76348E+01
 1.29476E+03	 2.51001E+01
 1.29831E+03	-1.53799E+01
 1.30186E+03	-3.86187E+01
 1.30541E+03	-3.50977E+01
 1.30895E+03	 7.56885E+00
 1.31249E+03	 4.54619E+01
 1.31603E+03	 6.17402E+01
 1.31957E+03	 5.78516E+01
 1.32310E+03	 4.54414E+01
 1.32663E+03	 3.98755E+01
 1.33016E+03	 3.56777E+01
 1.33369E+03	 1.94824E+01
 1.33722E+03	-1.18833E+01
 1.34074E+03	-3.11118E+01
 1.34426E+03	-3.36587E+01
 1.34778E+03	-1.10674E+01
 1.35129E+03	 2.21709E+01
 1.35481E+03	 4.61689E+01
 1.35832E+03	 4.69204E+01
 1.36183E+03	 3.27349E+01
 1.36534E+03	 1.65415E+01
 1.36884E+03	 1.47227E+01
 1.37234E+03	 9.55566E-01
 1.37584E+03	-5.43848E+00
 1.37934E+03	-4.97949E+00
 1.38284E+03	 3.82520E+00
 1.38633E+03	 2.76240E+01
 1.38982E+03	 2.70654E+01
 1.39331E+03	 9.90332E+00
 1.39680E+03	-1.28687E+01
 1.40028E+03	-3.39004E+01
 1.40376E+03	-3.41050E+01
 1.40724E+03	-2.09790E+01
 1.41072E+03	-8.29541E+00
 1.41420E+03	-4.71240E+00
 1.41767E+03	-2.85923E+01
 1.42114E+03	-3.98862E+01
 1.42461E+03	-3.08027E+01
 1.42808E+03	-1.51011E+01
 1.43154E+03	 1.82402E+01
 1.43500E+03	 4.88613E+01
 1.43846E+03	 5.60479E+01
 1.44192E+03	 5.07607E+01
 1.44537E+03	 2.62559E+01
 1.44883E+03	 1.19897E+01
 1.45228E+03	-3.80908E+00
 1.45573E+03	-5.28369E+00
 1.45917E+03	 1.35884E+01
 1.46262E+03	 9.40234E+00
 1.46606E+03	-5.80273E+00
 1.46950E+03	-1.23691E+01
 1.47294E+03	-2.13789E+01
 1.47637E+03	-2.62598E+01
 1.47981E+03	-1.94634E+01
 1.48324E+03	 4.37012E-01
 1.48667E+03	 2.56445E+00
 1.49009E+03	-2.64697E+00
 1.49352E+03	 1.29995E+01
 1.49694E+03	 2.69526E+01
 1.50036E+03	 1.50737E+01
 1.50378E+03	-1.98096E+00
 1.50720E+03	-1.49243E+01
 1.51061E+03	-3.34429E+01
 1.51402E+03	-3.30122E+01
 1.51743E+03	-1.06421E+01
 1.52084E+03	 1.03828E+01
 1.52424E+03	 1.34209E+01
 1.52764E+03	 2.89521E+01
 1.53105E+03	 5.99780E+01
 1.53444E+03	 7.53022E+01
 1.53784E+03	 9.16338E+01
 1.54123E+03	 1.03351E+02
 1.54463E+03	 1.03851E+02
 1.54802E+03	 1.04091E+02
 1.55140E+03	 1.08658E+02
 1.55479E+03	 1.18219E+02
 1.55817E+03	 1.23921E+02
 1.56155E+03	 1.32419E+02
 1.56493E+03	 1.42237E+02
 1.56831E+03	 1.52446E+02
 1.57168E+03	 1.61091E+02
 1.57506E+03	 1.39654E+02
 1.57843E+03	 1.10062E+02
 1.58180E+03	 7.90776E+01
 1.58516E+03	 4.87153E+01
 1.58853E+03	 2.90957E+01
 1.59189E+03	 2.42681E+01
 1.59525E+03	 2.36040E+01
 1.59861E+03	 1.60591E+01
 1.60196E+03	 9.22168E+00
 1.60531E+03	 6.59424E+00
 1.60867E+03	-5.76221E+00
 1.61202E+03	-7.23779E+00
 1.61536E+03	-1.04590E+00
 1.61871E+03	 1.00049E+00
 1.62205E+03	 4.06104E+00
 1.62539E+03	 7.60254E+00
 1.62873E+03	 2.61963E+00
 1.63207E+03	-3.92285E+00
 1.63540E+03	 8.55957E-01
 1.63873E+03	 1.96191E+00
 1.64206E+03	-4.48633E+00
 1.64539E+03	-7.22266E+00
 1.64872E+03	-4.73828E+00
 1.65204E+03	 2.82520E+00
 1.65536E+03	 7.05029E+00
 1.65868E+03	 2.62109E+00
 1.66200E+03	-2.60742E-01
 1.66532E+03	-6.68262E+00
 1.66863E+03	-1.35889E+00
 1.67194E+03	 2.28369E+00
 1.67525E+03	 3.91650E+00
 1.67856E+03	 5.17285E+00
 1.68186E+03	 2.52002E+00
 1.68516E+03	 1.59619E+00
 1.68847E+03	-5.36963E+00
 1.69176E+03	-7.97607E+00
 1.69506E+03	-5.81738E+00
 1.69836E+03	 9.52148E-01
 1.70165E+03	 9.89355E+00
 1.70494E+03	 7.42529E+00
 1.70823E+03	 3.01025E+00
 1.71151E+03	-2.61230E+00
 1.71480E+03	-5.46094E+00
 1.71808E+03	 4.63867E-01
 1.72136E+03	-5.44434E-01
 1.72464E+03	-2.35840E+00
 1.72792E+03	-4.61865E+00
 1.73119E+03	-5.69678E+00
 1.73446E+03	 2.12354E+00
 1.73773E+03	 7.24463E+00
 1.74100E+03	 6.95801E+00
 1.74427E+03	 1.86279E+00
 1.74753E+03	-6.19775E+00
 1.75079E+03	-1.27056E+01
 1.75405E+03	-1.34131E+01
 1.75731E+03	-4.66992E+00
 1.76057E+03	 7.89111E+00
 1.76382E+03	 1.78257E+01
 1.76707E+03	 2.08921E+01
 1.77032E+03	 9.62354E+00
 1.77357E+03	-3.65430E+00
 1.77681E+03	-8.62305E+00
 1.78006E+03	-1.97754E+00
 1.78330E+03	 4.57031E+00
 1.78654E+03	 2.47559E+00
 1.78978E+03	 1.64453E+00
 1.79301E+03	-1.59277E+00
 1.79625E+03	-4.63379E+00
 1.79948E+03	-1.23242E+00
 1.80271E+03	-3.33545E+00
 1.80593E+03	-1.50928E+00
 1.80916E+03	 3.78125E+00
 1.81238E+03	 1.62661E+01
 1.81560E+03	 2.26260E+01
 1.81882E+03	 1.48330E+01
 1.82204E+03	-1.80664E-02
 1.82526E+03	-8.52393E+00
 1.82847E+03	-8.46045E+00
 1.83168E+03	-7.73926E-01
 1.83489E+03	 6.99756E+00
 1.83810E+03	 1.19277E+01
 1.84130E+03	 9.50928E+00
 1.84451E+03	 5.20605E+00
 1.84771E+03	-2.34375E-02
 1.85091E+03	 2.20215E-01
 1.85411E+03	-1.37695E+00
 1.85730E+03	 2.23291E+00
 1.86049E+03	 7.97949E+00
 1.86369E+03	 1.14688E+01
 1.86688E+03	 1.30552E+01
 1.87006E+03	 8.34326E+00
 1.87325E+03	 6.37305E+00
 1.87643E+03	-1.65479E+00
 1.87961E+03	-7.20361E+00
 1.88279E+03	-3.05762E+00
 1.88597E+03	-1.46143E+00
 1.88915E+03	 7.27539E-02
 1.89232E+03	 2.31201E+00
 1.89549E+03	 3.42041E+00
 1.89866E+03	 6.15918E+00
 1.90183E+03	-7.61230E-01
 1.90500E+03	-2.05811E+00
 1.90816E+03	 1.17188E-01
 1.91132E+03	 2.67041E+00
 1.91448E+03	 4.53857E+00
 1.91764E+03	 4.73438E+00
 1.92080E+03	 2.48486E+00
 1.92395E+03	-3.12988E-01
 1.92710E+03	-1.55908E+00
 1.93025E+03	 5.28076E+00
 1.93340E+03	 1.05845E+01
 1.93655E+03	 1.26841E+01
 1.93969E+03	 1.32832E+01
 1.94284E+03	 1.21782E+01
 1.94598E+03	 8.15088E+00
 1.94912E+03	 2.34863E+00
 1.95225E+03	-5.86914E-01
 1.95539E+03	-4.66064E+00
 1.95852E+03	-5.42334E+00
 1.96165E+03	-1.59912E+00
 1.96478E+03	 9.88281E-01
 1.96791E+03	 6.24512E+00
 1.97103E+03	 1.09097E+01
 1.97416E+03	 1.28350E+01
 1.97728E+03	 8.94922E+00
 1.98040E+03	-8.95508E-01
 1.98352E+03	-6.22070E+00
 1.98663E+03	-5.39990E+00
 1.98975E+03	 9.34082E-01
 1.99286E+03	 6.93750E+00
 1.99597E+03	 4.95703E+00
 1.99908E+03	-1.88574E+00
 2.00218E+03	-8.68994E+00
 2.00529E+03	-4.43115E+00
 2.00839E+03	 5.23584E+00
 2.01149E+03	 1.34683E+01
 2.01459E+03	 9.42871E+00
 2.01769E+03	 9.67773E-01
 2.02078E+03	-3.51563E+00
 2.02387E+03	-5.40527E+00
 2.02696E+03	-2.78369E+00
 2.03005E+03	 7.08496E-01
 2.03314E+03	 2.20020E+00
 2.03623E+03	 1.64258E+00
 2.03931E+03	 3.24658E+00
 2.04239E+03	 7.17578E+00
 2.04547E+03	 6.25684E+00
 2.04855E+03	 5.91992E+00
 2.05163E+03	 8.45605E+00
 2.05470E+03	 4.33691E+00
 2.05777E+03	-1.19873E+00
 2.06084E+03	-3.94824E+00
 2.06391E+03	-2.36963E+00
 2.06698E+03	-1.29346E+00
 2.07004E+03	 1.29541E+00
 2.07310E+03	 4.20020E+00
 2.07617E+03	 2.87061E+00
 2.07923E+03	 1.84473E+00
 2.08228E+03	 3.20313E-01
 2.08534E+03	 2.40234E+00
 2.08839E+03	 1.18457E+00
 2.09144E+03	-2.13379E-01
 2.09449E+03	-1.20410E+00
 2.09754E+03	-2.78076E+00
 2.10059E+03	-1.82666E+00
 2.10363E+03	-2.70654E+00
 2.10667E+03	-1.78516E+00
 2.10972E+03	 5.37988E+00
 2.11275E+03	 5.09424E+00
 2.11579E+03	 4.32617E+00
 2.11883E+03	 2.35059E+00
 2.12186E+03	-3.51758E+00
 2.12489E+03	-3.83447E+00
 2.12792E+03	-3.18896E+00
 2.13095E+03	 1.06885E+00
 2.13397E+03	 1.07178E+00
 2.13700E+03	-2.87744E+00
 2.14002E+03	-1.81982E+00
 2.14304E+03	 4.20752E+00
 2.14606E+03	 1.19370E+01
 2.14908E+03	 1.96655E+01
 2.15209E+03	 1.43848E+01
 2.15511E+03	 9.16504E+00
 2.15812E+03	 6.51758E+00
 2.16113E+03	 6.35889E+00
 2.16413E+03	 9.76563E+00
 2.16714E+03	 8.63525E+00
 2.17014E+03	 1.10449E+00
 2.17315E+03	-4.19580E+00
 2.17615E+03	-6.57959E+00
 2.17915E+03	 7.53418E-01
 2.18214E+03	 5.80957E+00
 2.18514E+03	 9.14111E+00
 2.18813E+03	 9.05518E+00
 2.19112E+03	 4.61084E+00
 2.19411E+03	-7.84180E-01
 2.19710E+03	-2.47656E+00
 2.20009E+03	-1.10205E+00
 2.20307E+03	 3.33936E+00
 2.20605E+03	 5.07227E+00
 2.20903E+03	 4.30469E+00
 2.21201E+03	 1.20801E+00
 2.21499E+03	-1.57324E+00
 2.21796E+03	-6.53467E+00
 2.22094E+03	-4.17432E+00
 2.22391E+03	-1.37695E-01
 2.22688E+03	 5.43799E+00
 2.22985E+03	 1.00220E+01
 2.23281E+03	 7.36963E+00
 2.23578E+03	 7.66064E+00
 2.23874E+03	 6.72705E+00
 2.24170E+03	 2.63037E+00
 2.24466E+03	 4.11670E+00
 2.24762E+03	 9.79004E-01
 2.25058E+03	 1.13281E-01
 2.25353E+03	-7.39746E-01
 2.25648E+03	-2.22266E+00
 2.25943E+03	 6.09375E-01
 2.26238E+03	 2.57324E+00
 2.26533E+03	 2.84180E+00
 2.26827E+03	 3.73779E+00
 2.27122E+03	 1.64844E+00
 2.27416E+03	 2.07715E+00
 2.27710E+03	-3.06299E+00
 2.28004E+03	-2.72803E+00
 2.28297E+03	 2.96973E+00
 2.28591E+03	 2.91260E+00
 2.28884E+03	 1.91992E+00
 2.29177E+03	 3.31494E+00
 2.29470E+03	 2.54395E+00
 2.29763E+03	-1.56250E-01
 2.30055E+03	-8.72559E-01
 2.30348E+03	 2.12891E-01
 2.30640E+03	-3.64844E+00
 2.30932E+03	-3.38184E+00
 2.31224E+03	-2.26563E-01
 2.31516E+03	 2.61621E+00
 2.31807E+03	 4.87305E+00
 2.32099E+03	 5.25342E+00
 2.32390E+03	 3.68164E+00
 2.32681E+03	-1.30957E+00
 2.32972E+03	-4.68213E+00
 2.33262E+03	-4.47266E+00
 2.33553E+03	-3.00586E+00
 2.33843E+03	 5.07813E-01
 2.34133E+03	 1.61523E+00
 2.34423E+03	 5.27832E-01
 2.34713E+03	 1.03760E+00
 2.35003E+03	 8.05176E-01
 2.35292E+03	 3.41406E+00
 2.35581E+03	 3.37451E+00
 2.35871E+03	-7.03125E-02
 2.36160E+03	-2.82129E+00
 2.36448E+03	-5.07910E+00
 2.36737E+03	-3.76904E+00
 2.37025E+03	 2.73926E-01
 2.37314E+03	 9.01855E-01
 2.37602E+03	 3.19580E+00
 2.37890E+03	 2.03516E+00
 2.38177E+03	 2.09814E+00
 2.38465E+03	 1.39063E+00
 2.38752E+03	-2.41406E+00
 2.39040E+03	-2.53613E+00
 2.39327E+03	-2.70410E+00
 2.39614E+03	-3.09229E+00
 2.39900E+03	-6.53320E-01
 2.40187E+03	 1.56787E+00
 2.40473E+03	 2.07764E+00
 2.40760E+03	 3.76758E+00
 2.41046E+03	 5.25000E+00
 2.41332E+03	 3.54053E+00
 2.41617E+03	 5.91797E-01
 2.41903E+03	-2.28125E+00
 2.42188E+03	-9.31641E-01
 2.42473E+03	-9.01123E-01
 2.42758E+03	-4.28223E-01
 2.43043E+03	 3.84155E+00
 2.43328E+03	 2.43262E+00
 2.43613E+03	 5.78857E-01
 2.43897E+03	 7.36328E-01
 2.44181E+03	 2.84668E-01
 2.44465E+03	 3.21118E+00
 2.44749E+03	 4.20239E+00
 2.45033E+03	 3.62207E+00
 2.45316E+03	 8.65723E-01
 2.45600E+03	-6.26221E-01
 2.45883E+03	 2.25342E-01
 2.46166E+03	 7.04834E-01
 2.46449E+03	 8.11768E-01
 2.46732E+03	 9.57031E-01
 2.47014E+03	-2.51221E-01
 2.47296E+03	-8.49609E-01
 2.47579E+03	 1.95630E+00
 2.47861E+03	 7.09717E-01
 2.48143E+03	-1.52808E+00
 2.48424E+03	-1.56201E+00
 2.48706E+03	 9.71680E-01
 2.48987E+03	 2.27881E+00
 2.49268E+03	 2.55835E+00
 2.49549E+03	 3.27148E+00
 2.49830E+03	 2.21411E+00
 2.50111E+03	-9.38232E-01
 2.50392E+03	-1.42529E+00
 2.50672E+03	-2.19336E+00
 2.50952E+03	-2.51660E+00
 2.51232E+03	-2.85327E+00
 2.51512E+03	 2.91016E-01
 2.51792E+03	 3.67871E+00
 2.52072E+03	 3.94800E+00
 2.52351E+03	 1.91772E+00
 2.52630E+03	-1.52466E+00
 2.52909E+03	-3.16309E+00
 2.53188E+03	-4.02979E+00
 2.53467E+03	-2.80640E+00
 2.53746E+03	 2.44385E-01
 2.54024E+03	 1.98511E+00
 2.54302E+03	 1.73877E+00
 2.54580E+03	 2.41235E+00
 2.54858E+03	 2.16577E+00
 2.55136E+03	 2.69629E+00
 2.55414E+03	 3.53271E-01
 2.55691E+03	-1.97046E+00
 2.55968E+03	-1.40479E+00
 2.56246E+03	-1.79590E+00
 2.56523E+03	-3.70605E-01
 2.56799E+03	 6.77734E-01
 2.57076E+03	-6.63330E-01
 2.57353E+03	-1.01831E+00
 2.57629E+03	-1.74829E+00
 2.57905E+03	-2.83691E-01
 2.58181E+03	 3.58643E+00
 2.58457E+03	 5.96777E+00
 2.58733E+03	 6.98145E+00
 2.59008E+03	 1.76587E+00
 2.59283E+03	-2.38037E+00
 2.59559E+03	-4.30054E+00
 2.59834E+03	-3.92529E+00
 2.60109E+03	-7.32422E-01
 2.60383E+03	 2.90918E+00
 2.60658E+03	 5.58887E+00
 2.60932E+03	 4.45142E+00
 2.61207E+03	 4.48242E-01
 2.61481E+03	-2.25586E+00
 2.61755E+03	-4.33740E+00
 2.62028E+03	-1.30469E+00
 2.62302E+03	 2.48364E+00
 2.62575E+03	 4.19922E+00
 2.62849E+03	 1.50073E+00
 2.63122E+03	-2.94556E+00
 2.63395E+03	-3.59155E+00
 2.63668E+03	 3.38135E-01
 2.63940E+03	 2.76221E+00
 2.64213E+03	 4.35986E+00
 2.64485E+03	 4.34082E-01
 2.64757E+03	-3.49805E+00
 2.65029E+03	-5.14282E+00
 2.65301E+03	-1.72095E+00
 2.65573E+03	 1.87915E+00
 2.65845E+03	 5.20508E+00
 2.66116E+03	 3.93457E+00
 2.66387E+03	 1.92944E+00
 2.66658E+03	-1.31738E+00
 2.66929E+03	-2.45410E+00
 2.67200E+03	-9.40430E-01
 2.67471E+03	-3.75244E-01
 2.67741E+03	 7.45605E-01
 2.68012E+03	 5.71045E-01
 2.68282E+03	-7.90283E-01
 2.68552E+03	 8.76709E-01
 2.68822E+03	 1.56616E+00
 2.69091E+03	 1.04224E+00
 2.69361E+03	-2.26318E-01
 2.69630E+03	-3.09375E+00
 2.69899E+03	-1.79053E+00
 2.70168E+03	-1.20264E+00
 2.70437E+03	 1.04883E+00
 2.70706E+03	 2.72339E+00
 2.70975E+03	 8.06396E-01
 2.71243E+03	 4.30420E-01
 2.71511E+03	-8.61816E-02
 2.71780E+03	-6.20361E-01
 2.72048E+03	-7.46826E-01
 2.72315E+03	-1.92090E+00
 2.72583E+03	-3.04443E-01
 2.72851E+03	-1.08643E-01
 2.73118E+03	 9.14795E-01
 2.73385E+03	 1.83594E+00
 2.73652E+03	 1.37256E+00
 2.73919E+03	 2.77588E-01
 2.74186E+03	-2.85156E-01
 2.74453E+03	-9.57275E-01
 2.74719E+03	-1.62866E+00
 2.74985E+03	-2.44165E+00
 2.75251E+03	-3.97461E-01
 2.75517E+03	-2.20459E-01
 2.75783E+03	 7.68311E-01
 2.76049E+03	 6.03027E-01
 2.76315E+03	 1.51074E+00
 2.76580E+03	-5.34912E-01
 2.76845E+03	-3.85742E-01
 2.77110E+03	-9.78027E-01
 2.77375E+03	-5.56641E-02
 2.77640E+03	 2.24854E-01
 2.77905E+03	 1.73120E+00
 2.78169E+03	 1.03564E+00
 2.78433E+03	 1.96533E-01
 2.78698E+03	-6.68701E-01
 2.78962E+03	 7.68066E-01
 2.79226E+03	 4.17480E-02
 2.79489E+03	 1.00342E-01
 2.79753E+03	-6.21826E-01
 2.80016E+03	 5.88379E-02
 2.80280E+03	 2.65137E-01
 2.80543E+03	 9.78271E-01
 2.80806E+03	-9.64600E-01
 2.81068E+03	-2.02539E+00
 2.81331E+03	-1.16064E+00
 2.81594E+03	 1.43213E+00
 2.81856E+03	 3.32300E+00
 2.82118E+03	 2.13037E+00
 2.82380E+03	-2.03369E-01
 2.82642E+03	-2.82593E+00
 2.82904E+03	-4.73364E+00
 2.83166E+03	-2.98828E+00
 2.83427E+03	-1.33081E+00
 2.83689E+03	 3.57422E-01
 2.83950E+03	 1.05322E+00
 2.84211E+03	 1.27539E+00
 2.84472E+03	 6.54297E-01
 2.84732E+03	 2.84424E-01
 2.84993E+03	 3.19336E-01
 2.85253E+03	 1.56592E+00
 2.85514E+03	 2.39868E+00
 2.85774E+03	 2.51147E+00
 2.86034E+03	 2.04761E+00
 2.86294E+03	 1.25903E+00
 2.86553E+03	-4.11133E-01
 2.86813E+03	-1.67896E+00
 2.87072E+03	-2.48340E+00
 2.87332E+03	-1.35303E+00
 2.87591E+03	-2.79785E-01
 2.87850E+03	 4.56299E-01
 2.88109E+03	 3.05176E-02
 2.88367E+03	 4.81934E-01
 2.88626E+03	-2.67822E-01
 2.88884E+03	-2.22168E-01
 2.89142E+03	 2.40967E-01
 2.89401E+03	-6.93848E-01
 2.89659E+03	-2.58130E+00
 2.89916E+03	-3.80444E+00
 2.90174E+03	-2.18530E+00
 2.90432E+03	-1.30225E+00
 2.90689E+03	-3.41064E-01
 2.90946E+03	 2.08887E+00
 2.91203E+03	 3.14697E+00
 2.91460E+03	 3.25146E+00
 2.91717E+03	 4.77295E+00
 2.91974E+03	 4.74976E+00
 2.92230E+03	 3.27905E+00
 2.92486E+03	-7.24854E-01
 2.92743E+03	-1.11646E+00
 2.92999E+03	-3.22925E+00
 2.93255E+03	-1.79834E+00
 2.93510E+03	-1.26465E-01
 2.93766E+03	 1.96216E+00
 2.94021E+03	 2.59668E+00
 2.94277E+03	 1.79614E+00
 2.94532E+03	-4.52637E-01
 2.94787E+03	-1.59668E-01
 2.95042E+03	-7.98340E-01
 2.95297E+03	 1.80420E+00
 2.95551E+03	 1.09790E+00
 2.95806E+03	 1.08472E+00
 2.96060E+03	-1.36694E+00
 2.96314E+03	-2.56372E+00
 2.96568E+03	-7.18018E-01
 2.96822E+03	 2.28809E+00
 2.97076E+03	 2.35059E+00
 2.97330E+03	 2.29199E+00
 2.97583E+03	 5.99365E-01
 2.97837E+03	-1.73584E-01
 2.98090E+03	-8.47900E-01
 2.98343E+03	-3.43018E-01
 2.98596E+03	-8.01758E-01
 2.98849E+03	-5.12451E-01
 2.99101E+03	-1.43286E+00
 2.99354E+03	-1.11963E+00
 2.99606E+03	-6.60889E-01
 2.99858E+03	-1.43701E+00
 3.00110E+03	 2.31934E-02
 3.00362E+03	-1.94336E-01
 3.00614E+03	 0.00000E+00
 3.00866E+03	-7.59277E-02
 3.01117E+03	-1.80664E-02
 3.01369E+03	-5.00977E-01
 3.01620E+03	-4.43359E-01
 3.01871E+03	-1.75781E-01
 3.02122E+03	 1.14014E+00
 3.02373E+03	-9.69238E-02
 3.02623E+03	 3.53516E-01
 3.02874E+03	-5.05371E-02
 3.03124E+03	-2.12402E-02
 3.03374E+03	-5.52002E-01
 3.03625E+03	 1.02759E+00
 3.03875E+03	 7.66113E-01
 3.04124E+03	 7.21924E-01
 3.04374E+03	 4.07959E-01
 3.04624E+03	-1.08203E+00
 3.04873E+03	-2.17627E+00
 3.05122E+03	-2.55371E+00
 3.05371E+03	-2.53223E+00
 3.05620E+03	-1.74536E+00
 3.05869E+03	 1.79199E-01
 3.06118E+03	 2.20728E+00
 3.06367E+03	 9.88770E-01
 3.06615E+03	 1.41479E+00
 3.06863E+03	 2.40161E+00
 3.07111E+03	 3.32397E+00
 3.07359E+03	 3.68237E+00
 3.07607E+03	 3.37012E+00
 3.07855E+03	 1.14038E+00
 3.08103E+03	-1.10474E+00
 3.08350E+03	-4.19482E+00
 3.08598E+03	-2.99658E+00
 3.08845E+03	-1.23145E+00
 3.09092E+03	 7.50244E-01
 3.09339E+03	 8.35693E-01
 3.09586E+03	 1.80615E+00
 3.09832E+03	 1.66089E+00
 3.10079E+03	-8.26172E-01
