X-Axis	NPA w/ oil 20x (CRR) (SG) (Sub BG)
-3.97831E+02	 1.96191E+00
-3.93106E+02	 1.57642E+00
-3.88385E+02	 2.61084E+00
-3.83668E+02	 1.60815E+00
-3.78954E+02	-3.48389E-01
-3.74244E+02	-1.34644E+00
-3.69537E+02	 2.45605E-01
-3.64833E+02	 2.05518E+00
-3.60133E+02	 6.29395E-01
-3.55437E+02	 3.88916E-01
-3.50744E+02	-3.04688E-01
-3.46054E+02	-1.69897E+00
-3.41368E+02	-1.81738E+00
-3.36685E+02	-8.18115E-01
-3.32006E+02	 2.68799E-01
-3.27330E+02	-1.14502E+00
-3.22658E+02	-9.93164E-01
-3.17989E+02	 3.49609E-01
-3.13323E+02	-1.10938E+00
-3.08661E+02	-2.31445E-01
-3.04002E+02	 1.08911E+00
-2.99347E+02	 2.03589E+00
-2.94695E+02	-4.73633E-02
-2.90047E+02	-1.68164E+00
-2.85402E+02	-4.02832E-01
-2.80760E+02	 8.54492E-02
-2.76122E+02	 1.89453E-01
-2.71487E+02	 1.11597E+00
-2.66855E+02	-1.59204E+00
-2.62227E+02	-2.68457E+00
-2.57603E+02	-1.29053E+00
-2.52981E+02	 9.55566E-01
-2.48363E+02	 6.09619E-01
-2.43749E+02	 3.64502E-01
-2.39138E+02	 7.32910E-01
-2.34530E+02	 8.25928E-01
-2.29925E+02	 1.33643E+00
-2.25324E+02	 2.51221E+00
-2.20726E+02	 1.12964E+00
-2.16132E+02	-1.78735E+00
-2.11541E+02	-2.03979E+00
-2.06953E+02	-1.51978E+00
-2.02369E+02	-4.15771E-01
-1.97788E+02	 7.73926E-01
-1.93210E+02	 1.71167E+00
-1.88636E+02	 2.29102E+00
-1.84065E+02	 1.50024E+00
-1.79497E+02	 1.30762E+00
-1.74932E+02	-6.54785E-01
-1.70371E+02	-2.63379E+00
-1.65814E+02	-2.86230E+00
-1.61259E+02	-2.48145E+00
-1.56708E+02	-8.64746E-01
-1.52160E+02	 8.39844E-01
-1.47615E+02	 8.93066E-01
-1.43074E+02	 1.31934E+00
-1.38536E+02	 5.37842E-01
-1.34001E+02	 1.38232E+00
-1.29470E+02	 8.48389E-01
-1.24942E+02	 4.72656E-01
-1.20417E+02	-3.58398E-01
-1.15896E+02	-1.56079E+00
-1.11377E+02	-2.80054E+00
-1.06862E+02	-2.54590E+00
-1.02350E+02	-3.18335E+00
-9.78419E+01	-1.66357E+00
-9.33366E+01	 4.22119E-01
-8.88346E+01	 9.43604E-01
-8.43359E+01	 5.07813E-01
-7.98404E+01	 1.83105E-02
-7.53481E+01	-1.35962E+00
-7.08591E+01	-9.55078E-01
-6.63733E+01	-1.17749E+00
-6.18908E+01	-2.88086E-01
-5.74114E+01	-1.87354E+00
-5.29353E+01	-4.70581E+00
-4.84625E+01	-6.04663E+00
-4.39928E+01	-7.12012E+00
-3.95264E+01	-2.95410E-01
-3.50632E+01	 2.87598E+00
-3.06031E+01	-5.47705E+00
-2.61463E+01	-5.20557E+00
-2.16927E+01	-1.77246E-01
-1.72423E+01	 1.36011E+01
-1.27951E+01	 2.97871E+01
-8.35111E+00	 5.89141E+01
-3.91029E+00	 8.82280E+01
 5.27351E-01	 1.01115E+02
 4.96181E+00	 1.01948E+02
 9.39308E+00	 8.28198E+01
 1.38212E+01	 3.97759E+01
 1.82461E+01	-1.10225E+01
 2.26679E+01	-6.27817E+01
 2.70865E+01	-8.67363E+01
 3.15019E+01	-1.64485E+02
 3.59141E+01	-9.46040E+01
 4.03233E+01	 6.68984E+01
 4.47292E+01	-4.55532E+01
 4.91320E+01	-1.89417E+02
 5.35317E+01	 7.51537E+02
 5.79282E+01	 3.34500E+03
 6.23216E+01	 6.16199E+03
 6.67118E+01	 8.77452E+03
 7.10989E+01	 1.10183E+04
 7.54829E+01	 1.26457E+04
 7.98637E+01	 1.37434E+04
 8.42415E+01	 1.43409E+04
 8.86161E+01	 1.44928E+04
 9.29876E+01	 1.41224E+04
 9.73559E+01	 1.34190E+04
 1.01721E+02	 1.26162E+04
 1.06083E+02	 1.17993E+04
 1.10442E+02	 1.10141E+04
 1.14798E+02	 1.02948E+04
 1.19151E+02	 9.71649E+03
 1.23501E+02	 9.25732E+03
 1.27848E+02	 8.62115E+03
 1.32191E+02	 8.05307E+03
 1.36532E+02	 7.53606E+03
 1.40869E+02	 7.02336E+03
 1.45203E+02	 6.52159E+03
 1.49535E+02	 5.99615E+03
 1.53863E+02	 5.45788E+03
 1.58188E+02	 4.79771E+03
 1.62510E+02	 4.26656E+03
 1.66829E+02	 4.01071E+03
 1.71145E+02	 3.84613E+03
 1.75458E+02	 3.68079E+03
 1.79768E+02	 3.43907E+03
 1.84074E+02	 3.18352E+03
 1.88378E+02	 2.97039E+03
 1.92679E+02	 2.85981E+03
 1.96976E+02	 2.85049E+03
 2.01271E+02	 2.76596E+03
 2.05562E+02	 2.55475E+03
 2.09851E+02	 2.30647E+03
 2.14136E+02	 2.17941E+03
 2.18419E+02	 2.26509E+03
 2.22698E+02	 2.51087E+03
 2.26975E+02	 2.81620E+03
 2.31248E+02	 3.07956E+03
 2.35519E+02	 3.16750E+03
 2.39786E+02	 3.08794E+03
 2.44050E+02	 2.97899E+03
 2.48312E+02	 2.98868E+03
 2.52570E+02	 3.08679E+03
 2.56825E+02	 3.17227E+03
 2.61078E+02	 3.16387E+03
 2.65327E+02	 3.05197E+03
 2.69574E+02	 2.81572E+03
 2.73817E+02	 2.66750E+03
 2.78057E+02	 2.66023E+03
 2.82295E+02	 2.58750E+03
 2.86529E+02	 2.38084E+03
 2.90761E+02	 2.11634E+03
 2.94989E+02	 1.80531E+03
 2.99215E+02	 1.55610E+03
 3.03438E+02	 1.41999E+03
 3.07657E+02	 1.36982E+03
 3.11874E+02	 1.32588E+03
 3.16088E+02	 1.24952E+03
 3.20298E+02	 1.14370E+03
 3.24506E+02	 9.54339E+02
 3.28711E+02	 7.43662E+02
 3.32913E+02	 6.22813E+02
 3.37112E+02	 5.73610E+02
 3.41308E+02	 5.56130E+02
 3.45501E+02	 5.17784E+02
 3.49691E+02	 4.24175E+02
 3.53879E+02	 3.65460E+02
 3.58063E+02	 3.37578E+02
 3.62244E+02	 3.04608E+02
 3.66423E+02	 2.88021E+02
 3.70598E+02	 2.51575E+02
 3.74771E+02	 2.07295E+02
 3.78941E+02	 2.05295E+02
 3.83108E+02	 2.51903E+02
 3.87272E+02	 3.00381E+02
 3.91433E+02	 3.12778E+02
 3.95591E+02	 3.09541E+02
 3.99746E+02	 2.84823E+02
 4.03898E+02	 1.89149E+02
 4.08048E+02	 1.20582E+02
 4.12194E+02	 1.46582E+02
 4.16338E+02	 1.84202E+02
 4.20479E+02	 1.91064E+02
 4.24617E+02	 2.07928E+02
 4.28752E+02	 1.84321E+02
 4.32884E+02	 9.45781E+01
 4.37013E+02	 2.61748E+01
 4.41140E+02	 2.94531E+00
 4.45263E+02	-2.19229E+01
 4.49384E+02	-5.75313E+01
 4.53502E+02	-4.90869E+01
 4.57617E+02	-4.41309E+00
 4.61729E+02	 1.08047E+01
 4.65838E+02	 5.65977E+01
 4.69945E+02	 8.47627E+01
 4.74048E+02	 6.70840E+01
 4.78149E+02	 4.24639E+01
 4.82247E+02	 4.16406E+00
 4.86342E+02	-2.84785E+01
 4.90434E+02	-5.30781E+01
 4.94524E+02	-8.02520E+01
 4.98610E+02	-8.42627E+01
 5.02694E+02	-5.84468E+01
 5.06775E+02	 1.43164E+00
 5.10853E+02	-5.51904E+00
 5.14929E+02	-3.39023E+01
 5.19001E+02	-4.64185E+01
 5.23071E+02	-5.80527E+01
 5.27138E+02	-4.10781E+01
 5.31202E+02	 1.12432E+01
 5.35263E+02	 6.24102E+01
 5.39322E+02	 8.32583E+01
 5.43377E+02	 9.04302E+01
 5.47430E+02	 1.17468E+02
 5.51480E+02	 9.88535E+01
 5.55528E+02	 3.47080E+01
 5.59572E+02	-1.73267E+01
 5.63614E+02	-5.47568E+01
 5.67653E+02	-4.71733E+01
 5.71689E+02	 2.70313E+00
 5.75723E+02	 2.62876E+01
 5.79753E+02	-2.64404E+00
 5.83781E+02	-6.90801E+01
 5.87806E+02	-1.46606E+02
 5.91829E+02	-1.36385E+02
 5.95848E+02	-4.67749E+01
 5.99865E+02	 7.74331E+01
 6.03879E+02	 1.41130E+02
 6.07891E+02	 1.20356E+02
 6.11899E+02	 5.70762E+01
 6.15905E+02	-2.27788E+01
 6.19908E+02	-3.53145E+01
 6.23908E+02	 4.02236E+01
 6.27906E+02	 8.79199E+01
 6.31901E+02	 1.16462E+02
 6.35893E+02	 1.20951E+02
 6.39882E+02	 7.19624E+01
 6.43869E+02	 2.22319E+01
 6.47853E+02	 1.82651E+01
 6.51834E+02	 7.57520E+01
 6.55813E+02	 9.84673E+01
 6.59789E+02	 5.53594E+01
 6.63762E+02	 1.75923E+01
 6.67732E+02	 1.26553E+01
 6.71700E+02	 2.21460E+01
 6.75665E+02	 7.61763E+01
 6.79627E+02	 1.35826E+02
 6.83587E+02	 1.36624E+02
 6.87544E+02	 4.64624E+01
 6.91498E+02	-2.11606E+01
 6.95449E+02	-1.04443E+01
 6.99398E+02	-8.19092E+00
 7.03344E+02	-2.74756E+01
 7.07288E+02	-1.57729E+01
 7.11228E+02	-2.35679E+01
 7.15166E+02	-2.66509E+01
 7.19102E+02	 1.62178E+01
 7.23034E+02	 7.81953E+01
 7.26965E+02	 7.24233E+01
 7.30892E+02	 1.03281E+01
 7.34817E+02	-4.34800E+01
 7.38739E+02	-6.69595E+01
 7.42658E+02	-3.44556E+01
 7.46575E+02	 3.34282E+01
 7.50489E+02	 7.47915E+01
 7.54400E+02	 4.55518E+01
 7.58309E+02	-9.04150E+00
 7.62215E+02	-5.64082E+01
 7.66119E+02	-9.19482E+01
 7.70019E+02	-6.46260E+01
 7.73918E+02	 5.12695E+00
 7.77813E+02	 7.56333E+01
 7.81706E+02	 1.12964E+02
 7.85596E+02	 1.06005E+02
 7.89484E+02	 6.60791E+01
 7.93369E+02	-1.50806E+01
 7.97251E+02	-8.93364E+01
 8.01131E+02	-1.03713E+02
 8.05008E+02	-4.83208E+01
 8.08883E+02	 4.04780E+01
 8.12755E+02	 1.40245E+02
 8.16624E+02	 2.05552E+02
 8.20491E+02	 2.14768E+02
 8.24355E+02	 2.24621E+02
 8.28217E+02	 2.39733E+02
 8.32075E+02	 2.50507E+02
 8.35932E+02	 2.60251E+02
 8.39785E+02	 2.80563E+02
 8.43637E+02	 2.78169E+02
 8.47485E+02	 2.02050E+02
 8.51331E+02	 1.07768E+02
 8.55174E+02	 3.26919E+01
 8.59015E+02	 1.43989E+01
 8.62853E+02	 4.97246E+01
 8.66689E+02	 1.36453E+02
 8.70522E+02	 1.68933E+02
 8.74352E+02	 9.80000E+01
 8.78180E+02	-1.42192E+01
 8.82006E+02	-9.73945E+01
 8.85828E+02	-7.25220E+01
 8.89648E+02	 2.78115E+01
 8.93466E+02	 9.78711E+01
 8.97281E+02	 1.06804E+02
 9.01094E+02	 1.60405E+01
 9.04904E+02	-6.47813E+01
 9.08711E+02	-8.57368E+01
 9.12516E+02	-4.15488E+01
 9.16318E+02	 3.30303E+01
 9.20118E+02	 4.50483E+01
 9.23915E+02	 1.31748E+01
 9.27710E+02	-7.07861E+00
 9.31502E+02	 1.29707E+01
 9.35292E+02	 2.98896E+01
 9.39079E+02	 3.79663E+01
 9.42863E+02	 5.41533E+01
 9.46645E+02	 3.84409E+01
 9.50425E+02	-2.92871E+00
 9.54202E+02	-3.66328E+01
 9.57976E+02	-2.85332E+01
 9.61748E+02	 5.95264E+00
 9.65517E+02	 3.77866E+01
 9.69284E+02	 4.73081E+01
 9.73049E+02	 1.86523E+00
 9.76811E+02	-5.34487E+01
 9.80570E+02	-6.69170E+01
 9.84327E+02	-5.48452E+01
 9.88081E+02	-2.83530E+01
 9.91833E+02	 8.41992E+00
 9.95583E+02	 3.09351E+01
 9.99329E+02	 5.66934E+01
 1.00307E+03	 8.22783E+01
 1.00682E+03	 4.79692E+01
 1.01056E+03	-1.59126E+01
 1.01429E+03	-5.78066E+01
 1.01803E+03	-2.20176E+01
 1.02176E+03	 2.21016E+01
 1.02549E+03	 3.76582E+01
 1.02922E+03	 1.64863E+01
 1.03294E+03	-4.85420E+01
 1.03666E+03	-8.16685E+01
 1.04038E+03	-5.21563E+01
 1.04410E+03	 9.61816E+00
 1.04781E+03	 6.74893E+01
 1.05153E+03	 8.86309E+01
 1.05524E+03	 7.86519E+01
 1.05894E+03	 3.47129E+01
 1.06265E+03	 5.26660E+00
 1.06635E+03	-3.05581E+01
 1.07005E+03	-5.70889E+01
 1.07375E+03	-4.99731E+01
 1.07744E+03	-1.20259E+01
 1.08114E+03	 4.96353E+01
 1.08483E+03	 6.00479E+01
 1.08851E+03	 1.39966E+01
 1.09220E+03	-3.52520E+01
 1.09588E+03	-7.19180E+01
 1.09956E+03	-6.80576E+01
 1.10324E+03	-3.97925E+01
 1.10692E+03	 5.95459E+00
 1.11059E+03	 7.73682E+00
 1.11426E+03	 2.34766E+00
 1.11793E+03	 8.73877E+00
 1.12159E+03	 1.48330E+01
 1.12526E+03	 9.55908E+00
 1.12892E+03	 2.31274E+01
 1.13258E+03	 1.00281E+02
 1.13623E+03	 1.96494E+02
 1.13989E+03	 2.63950E+02
 1.14354E+03	 3.07066E+02
 1.14719E+03	 3.06107E+02
 1.15084E+03	 3.00118E+02
 1.15448E+03	 2.95772E+02
 1.15812E+03	 2.62595E+02
 1.16176E+03	 2.26366E+02
 1.16540E+03	 1.75202E+02
 1.16903E+03	 1.68276E+02
 1.17267E+03	 2.12792E+02
 1.17630E+03	 2.77435E+02
 1.17992E+03	 2.96778E+02
 1.18355E+03	 2.53118E+02
 1.18717E+03	 1.94844E+02
 1.19079E+03	 1.47596E+02
 1.19441E+03	 9.25093E+01
 1.19803E+03	 5.85063E+01
 1.20164E+03	 3.34570E+01
 1.20525E+03	 1.15693E+01
 1.20886E+03	-8.22217E+00
 1.21246E+03	-2.28711E+00
 1.21607E+03	 3.96724E+01
 1.21967E+03	 6.49648E+01
 1.22327E+03	 7.60449E+01
 1.22687E+03	 1.00171E+02
 1.23046E+03	 9.33130E+01
 1.23405E+03	 5.18809E+01
 1.23764E+03	 9.21094E+00
 1.24123E+03	 1.17676E+01
 1.24482E+03	 5.71328E+01
 1.24840E+03	 1.16525E+02
 1.25198E+03	 1.76090E+02
 1.25556E+03	 2.16165E+02
 1.25913E+03	 1.95878E+02
 1.26271E+03	 1.66708E+02
 1.26628E+03	 1.46276E+02
 1.26985E+03	 1.45222E+02
 1.27341E+03	 1.47425E+02
 1.27698E+03	 1.12418E+02
 1.28054E+03	 5.88179E+01
 1.28410E+03	 5.03530E+01
 1.28766E+03	 4.04531E+01
 1.29121E+03	 1.92056E+01
 1.29476E+03	-9.56445E+00
 1.29831E+03	-2.65659E+01
 1.30186E+03	-3.09404E+01
 1.30541E+03	-2.28887E+01
 1.30895E+03	 2.69814E+01
 1.31249E+03	 5.61909E+01
 1.31603E+03	 3.93105E+01
 1.31957E+03	 1.24321E+01
 1.32310E+03	-1.31689E+01
 1.32663E+03	 5.23730E+00
 1.33016E+03	 2.50215E+01
 1.33369E+03	 9.13135E+00
 1.33722E+03	-3.41855E+01
 1.34074E+03	-7.52681E+01
 1.34426E+03	-7.18013E+01
 1.34778E+03	-1.71118E+01
 1.35129E+03	 5.99707E+01
 1.35481E+03	 1.19892E+02
 1.35832E+03	 1.36405E+02
 1.36183E+03	 1.23080E+02
 1.36534E+03	 8.60518E+01
 1.36884E+03	 6.12544E+01
 1.37234E+03	 3.28511E+01
 1.37584E+03	 7.02393E+00
 1.37934E+03	-5.90527E+00
 1.38284E+03	 5.16455E+00
 1.38633E+03	 2.80229E+01
 1.38982E+03	 2.33848E+01
 1.39331E+03	 1.21123E+01
 1.39680E+03	 1.30938E+01
 1.40028E+03	 8.19531E+00
 1.40376E+03	 1.93213E+00
 1.40724E+03	 6.12744E+00
 1.41072E+03	 6.26904E+00
 1.41420E+03	 4.26416E+00
 1.41767E+03	-3.48975E+00
 1.42114E+03	-1.73359E+01
 1.42461E+03	-4.22778E+01
 1.42808E+03	-7.18804E+01
 1.43154E+03	-6.22612E+01
 1.43500E+03	-2.60098E+01
 1.43846E+03	-1.20044E+01
 1.44192E+03	-1.40713E+01
 1.44537E+03	-5.10293E+01
 1.44883E+03	-7.95347E+01
 1.45228E+03	-5.64956E+01
 1.45573E+03	 9.20459E+00
 1.45917E+03	 9.75869E+01
 1.46262E+03	 1.18935E+02
 1.46606E+03	 8.16895E+01
 1.46950E+03	 3.67964E+01
 1.47294E+03	 1.60132E+01
 1.47637E+03	 3.38501E+01
 1.47981E+03	 7.35176E+01
 1.48324E+03	 1.42812E+02
 1.48667E+03	 1.94837E+02
 1.49009E+03	 2.29800E+02
 1.49352E+03	 2.80162E+02
 1.49694E+03	 3.20302E+02
 1.50036E+03	 3.16026E+02
 1.50378E+03	 2.94441E+02
 1.50720E+03	 2.77072E+02
 1.51061E+03	 2.67460E+02
 1.51402E+03	 2.61620E+02
 1.51743E+03	 2.79794E+02
 1.52084E+03	 2.58804E+02
 1.52424E+03	 1.99549E+02
 1.52764E+03	 1.56361E+02
 1.53105E+03	 1.32841E+02
 1.53444E+03	 9.54976E+01
 1.53784E+03	 8.38169E+01
 1.54123E+03	 9.77339E+01
 1.54463E+03	 9.35859E+01
 1.54802E+03	 7.84336E+01
 1.55140E+03	 7.53877E+01
 1.55479E+03	 7.88433E+01
 1.55817E+03	 6.19487E+01
 1.56155E+03	 6.24521E+01
 1.56493E+03	 8.67095E+01
 1.56831E+03	 1.01460E+02
 1.57168E+03	 9.12544E+01
 1.57506E+03	 8.55649E+01
 1.57843E+03	 1.00478E+02
 1.58180E+03	 1.27906E+02
 1.58516E+03	 1.29107E+02
 1.58853E+03	 1.24698E+02
 1.59189E+03	 1.15977E+02
 1.59525E+03	 8.83032E+01
 1.59861E+03	 5.97197E+01
 1.60196E+03	 5.07188E+01
 1.60531E+03	 3.49092E+01
 1.60867E+03	 5.08301E+00
 1.61202E+03	 4.39355E+00
 1.61536E+03	 3.00996E+01
 1.61871E+03	 2.47075E+01
 1.62205E+03	 1.70474E+01
 1.62539E+03	 1.40278E+01
 1.62873E+03	-8.27002E+00
 1.63207E+03	-2.62764E+01
 1.63540E+03	-1.01719E+01
 1.63873E+03	 1.02036E+01
 1.64206E+03	 6.66797E+00
 1.64539E+03	-9.13037E+00
 1.64872E+03	-8.52783E+00
 1.65204E+03	 4.20117E+00
 1.65536E+03	 2.15659E+01
 1.65868E+03	 2.24214E+01
 1.66200E+03	 6.70166E+00
 1.66532E+03	-8.06689E+00
 1.66863E+03	-1.53149E+01
 1.67194E+03	-6.28760E+00
 1.67525E+03	 2.05586E+01
 1.67856E+03	 2.64683E+01
 1.68186E+03	 6.81738E+00
 1.68516E+03	-8.15723E+00
 1.68847E+03	-1.48726E+01
 1.69176E+03	-8.29395E+00
 1.69506E+03	 1.69385E+00
 1.69836E+03	 1.36133E+01
 1.70165E+03	 7.01855E+00
 1.70494E+03	-8.56250E+00
 1.70823E+03	-1.46963E+01
 1.71151E+03	-1.17471E+01
 1.71480E+03	-1.38555E+01
 1.71808E+03	-3.31396E+00
 1.72136E+03	 3.89160E-01
 1.72464E+03	 5.97070E+00
 1.72792E+03	 1.08496E+00
 1.73119E+03	 3.09570E+00
 1.73446E+03	 8.14551E+00
 1.73773E+03	 1.04526E+01
 1.74100E+03	 6.40381E+00
 1.74427E+03	-8.28809E+00
 1.74753E+03	-1.92095E+01
 1.75079E+03	-1.24473E+01
 1.75405E+03	-1.35742E-01
 1.75731E+03	 1.86807E+01
 1.76057E+03	 2.38433E+01
 1.76382E+03	 2.17939E+01
 1.76707E+03	 1.36289E+01
 1.77032E+03	 1.05449E+01
 1.77357E+03	 1.40103E+01
 1.77681E+03	-1.75293E-01
 1.78006E+03	-8.61279E+00
 1.78330E+03	-6.93066E+00
 1.78654E+03	-6.13867E+00
 1.78978E+03	 5.10547E+00
 1.79301E+03	 1.71782E+01
 1.79625E+03	 1.36719E+01
 1.79948E+03	 5.93262E+00
 1.80271E+03	-4.19629E+00
 1.80593E+03	-2.94873E+00
 1.80916E+03	-1.99854E+00
 1.81238E+03	 4.51221E+00
 1.81560E+03	 1.87085E+01
 1.81882E+03	 2.31646E+01
 1.82204E+03	 7.63428E+00
 1.82526E+03	-8.55469E+00
 1.82847E+03	-1.73232E+01
 1.83168E+03	-1.17837E+01
 1.83489E+03	 5.76953E+00
 1.83810E+03	 1.82251E+01
 1.84130E+03	 2.06172E+01
 1.84451E+03	 8.94922E+00
 1.84771E+03	-1.09375E+01
 1.85091E+03	-1.12021E+01
 1.85411E+03	-7.15967E+00
 1.85730E+03	-6.92383E-01
 1.86049E+03	 2.41211E+00
 1.86369E+03	 6.04541E+00
 1.86688E+03	 1.46431E+01
 1.87006E+03	 1.85156E+01
 1.87325E+03	 1.88628E+01
 1.87643E+03	 1.10605E+01
 1.87961E+03	-2.45410E+00
 1.88279E+03	 6.53320E-01
 1.88597E+03	 4.11230E+00
 1.88915E+03	-1.26221E+00
 1.89232E+03	-1.60107E+00
 1.89549E+03	 4.16357E+00
 1.89866E+03	 3.57568E+00
 1.90183E+03	-1.70996E+00
 1.90500E+03	-4.38037E+00
 1.90816E+03	-3.25928E+00
 1.91132E+03	-1.17285E+00
 1.91448E+03	 2.07520E-01
 1.91764E+03	 3.78809E+00
 1.92080E+03	 4.26172E+00
 1.92395E+03	-3.15430E-01
 1.92710E+03	-4.51904E+00
 1.93025E+03	-4.48193E+00
 1.93340E+03	 2.30518E+00
 1.93655E+03	 5.66309E+00
 1.93969E+03	 1.19150E+01
 1.94284E+03	 1.88164E+01
 1.94598E+03	 1.74932E+01
 1.94912E+03	 1.03823E+01
 1.95225E+03	 6.09082E+00
 1.95539E+03	 5.08789E-01
 1.95852E+03	-1.82959E+00
 1.96165E+03	-4.03760E+00
 1.96478E+03	-3.50293E+00
 1.96791E+03	-2.72412E+00
 1.97103E+03	 2.77002E+00
 1.97416E+03	 1.33047E+01
 1.97728E+03	 1.25020E+01
 1.98040E+03	 4.30322E+00
 1.98352E+03	-3.20850E+00
 1.98663E+03	-5.42090E+00
 1.98975E+03	-4.40576E+00
 1.99286E+03	 1.02002E+00
 1.99597E+03	 7.91309E+00
 1.99908E+03	 3.50586E+00
 2.00218E+03	-8.71729E+00
 2.00529E+03	-6.27734E+00
 2.00839E+03	 3.89990E+00
 2.01149E+03	 1.38594E+01
 2.01459E+03	 1.37583E+01
 2.01769E+03	 9.49951E+00
 2.02078E+03	 4.17334E+00
 2.02387E+03	-2.62646E+00
 2.02696E+03	-1.46533E+00
 2.03005E+03	-1.64014E+00
 2.03314E+03	-4.07178E+00
 2.03623E+03	-5.87256E+00
 2.03931E+03	 1.40576E+00
 2.04239E+03	 9.67041E+00
 2.04547E+03	 1.16641E+01
 2.04855E+03	 7.66406E+00
 2.05163E+03	 5.25635E+00
 2.05470E+03	-2.87988E+00
 2.05777E+03	-7.78906E+00
 2.06084E+03	-6.59229E+00
 2.06391E+03	-1.16699E+00
 2.06698E+03	-2.93311E+00
 2.07004E+03	-6.68457E-01
 2.07310E+03	 5.83350E+00
 2.07617E+03	 9.61572E+00
 2.07923E+03	 1.11523E+01
 2.08228E+03	 1.45234E+01
 2.08534E+03	 8.72559E+00
 2.08839E+03	 1.17334E+00
 2.09144E+03	-1.99951E+00
 2.09449E+03	-4.53809E+00
 2.09754E+03	-7.53467E+00
 2.10059E+03	-1.06226E+01
 2.10363E+03	-5.16748E+00
 2.10667E+03	 2.39697E+00
 2.10972E+03	 1.28413E+01
 2.11275E+03	 2.42295E+01
 2.11579E+03	 1.96885E+01
 2.11883E+03	 7.95166E+00
 2.12186E+03	-3.85645E+00
 2.12489E+03	-9.99561E+00
 2.12792E+03	-6.45166E+00
 2.13095E+03	 2.14844E-01
 2.13397E+03	 3.27490E+00
 2.13700E+03	 1.19287E+00
 2.14002E+03	-3.67725E+00
 2.14304E+03	 2.34912E+00
 2.14606E+03	 1.48936E+01
 2.14908E+03	 2.44351E+01
 2.15209E+03	 2.14634E+01
 2.15511E+03	 1.10498E+01
 2.15812E+03	 4.49609E+00
 2.16113E+03	 4.14844E+00
 2.16413E+03	 9.74561E+00
 2.16714E+03	 1.45703E+01
 2.17014E+03	 7.03662E+00
 2.17315E+03	-6.66650E+00
 2.17615E+03	-1.28101E+01
 2.17915E+03	-9.70313E+00
 2.18214E+03	-6.02051E-01
 2.18514E+03	 1.00288E+01
 2.18813E+03	 1.82983E+01
 2.19112E+03	 1.57573E+01
 2.19411E+03	 6.76465E+00
 2.19710E+03	-2.31445E-01
 2.20009E+03	-2.50195E+00
 2.20307E+03	-1.63818E+00
 2.20605E+03	 1.23877E+00
 2.20903E+03	 5.07227E+00
 2.21201E+03	 5.35400E+00
 2.21499E+03	 1.48535E+00
 2.21796E+03	-5.42578E+00
 2.22094E+03	-8.07617E+00
 2.22391E+03	-5.74463E+00
 2.22688E+03	-1.49707E+00
 2.22985E+03	 5.85596E+00
 2.23281E+03	 1.14331E+01
 2.23578E+03	 8.08008E+00
 2.23874E+03	 3.74658E+00
 2.24170E+03	-2.45850E+00
 2.24466E+03	-3.37451E+00
 2.24762E+03	-9.35059E-01
 2.25058E+03	 3.73047E-01
 2.25353E+03	 4.74463E+00
 2.25648E+03	 3.66748E+00
 2.25943E+03	-1.01563E-01
 2.26238E+03	-2.31787E+00
 2.26533E+03	-4.49365E+00
 2.26827E+03	-1.54395E+00
 2.27122E+03	-1.03516E+00
 2.27416E+03	-2.88428E+00
 2.27710E+03	-1.18311E+00
 2.28004E+03	 1.75781E-02
 2.28297E+03	 5.55127E+00
 2.28591E+03	 7.08398E+00
 2.28884E+03	 5.61963E+00
 2.29177E+03	 2.04932E+00
 2.29470E+03	 9.99512E-01
 2.29763E+03	-8.98438E-02
 2.30055E+03	-4.16016E-01
 2.30348E+03	-2.39893E+00
 2.30640E+03	-1.45996E+00
 2.30932E+03	-1.33936E+00
 2.31224E+03	 1.61621E-01
 2.31516E+03	 3.03906E+00
 2.31807E+03	 4.82227E+00
 2.32099E+03	 3.97217E+00
 2.32390E+03	 5.06543E+00
 2.32681E+03	 3.50537E+00
 2.32972E+03	 2.69287E+00
 2.33262E+03	-1.34961E+00
 2.33553E+03	-2.21777E+00
 2.33843E+03	-7.10449E-01
 2.34133E+03	-1.06201E+00
 2.34423E+03	-8.48633E-01
 2.34713E+03	 1.09521E+00
 2.35003E+03	 3.08984E+00
 2.35292E+03	 6.81543E+00
 2.35581E+03	 5.63770E+00
 2.35871E+03	 5.44629E+00
 2.36160E+03	 8.78906E-01
 2.36448E+03	-3.39258E+00
 2.36737E+03	-3.04932E+00
 2.37025E+03	-2.63428E+00
 2.37314E+03	-4.66797E-01
 2.37602E+03	 3.28174E+00
 2.37890E+03	 3.97803E+00
 2.38177E+03	 3.37939E+00
 2.38465E+03	 1.13867E+00
 2.38752E+03	 1.93848E-01
 2.39040E+03	-3.58398E-01
 2.39327E+03	-1.20313E+00
 2.39614E+03	-7.16797E-01
 2.39900E+03	-9.91699E-01
 2.40187E+03	 5.60059E-01
 2.40473E+03	 3.07764E+00
 2.40760E+03	 3.29932E+00
 2.41046E+03	 2.29102E+00
 2.41332E+03	 7.66602E-02
 2.41617E+03	-1.76172E+00
 2.41903E+03	-2.68213E+00
 2.42188E+03	-1.44678E+00
 2.42473E+03	-2.31934E-01
 2.42758E+03	 1.61475E+00
 2.43043E+03	 3.03662E+00
 2.43328E+03	 3.18506E+00
 2.43613E+03	 2.29492E+00
 2.43897E+03	 7.72461E-01
 2.44181E+03	-9.52148E-01
 2.44465E+03	-1.58691E-01
 2.44749E+03	-1.23584E+00
 2.45033E+03	-1.65527E-01
 2.45316E+03	-1.15967E+00
 2.45600E+03	 6.93848E-01
 2.45883E+03	 3.01221E+00
 2.46166E+03	 1.64453E+00
 2.46449E+03	 1.74170E+00
 2.46732E+03	-6.65039E-01
 2.47014E+03	-2.55518E+00
 2.47296E+03	 2.01660E-01
 2.47579E+03	 5.23438E-01
 2.47861E+03	 6.95313E-01
 2.48143E+03	-8.74023E-01
 2.48424E+03	-1.20557E+00
 2.48706E+03	 4.10156E-02
 2.48987E+03	 4.62646E-01
 2.49268E+03	 1.95337E+00
 2.49549E+03	 1.96143E+00
 2.49830E+03	-2.41699E-01
 2.50111E+03	-1.69971E+00
 2.50392E+03	-2.37793E+00
 2.50672E+03	-2.88867E+00
 2.50952E+03	-1.34009E+00
 2.51232E+03	-1.92627E-01
 2.51512E+03	 2.37012E+00
 2.51792E+03	 5.03516E+00
 2.52072E+03	 5.12012E+00
 2.52351E+03	 1.57666E+00
 2.52630E+03	-1.97144E+00
 2.52909E+03	-3.22266E+00
 2.53188E+03	-2.22583E+00
 2.53467E+03	-1.39160E-02
 2.53746E+03	 1.72705E+00
 2.54024E+03	 2.18774E+00
 2.54302E+03	 1.22070E-01
 2.54580E+03	-8.91357E-01
 2.54858E+03	 9.70459E-01
 2.55136E+03	 2.72363E+00
 2.55414E+03	 1.21411E+00
 2.55691E+03	-3.99902E-01
 2.55968E+03	-1.60889E+00
 2.56246E+03	-2.07227E+00
 2.56523E+03	-1.47583E+00
 2.56799E+03	 1.96924E+00
 2.57076E+03	 1.94824E+00
 2.57353E+03	-1.66016E-01
 2.57629E+03	-1.53809E+00
 2.57905E+03	-9.37012E-01
 2.58181E+03	-4.67285E-01
 2.58457E+03	 2.88208E+00
 2.58733E+03	 5.05347E+00
 2.59008E+03	 3.52783E+00
 2.59283E+03	-6.33545E-01
 2.59559E+03	-5.04639E-01
 2.59834E+03	-2.87744E+00
 2.60109E+03	-9.55322E-01
 2.60383E+03	 1.78906E+00
 2.60658E+03	 3.49878E+00
 2.60932E+03	 1.66797E+00
 2.61207E+03	 5.77393E-01
 2.61481E+03	-8.76465E-02
 2.61755E+03	-8.47900E-01
 2.62028E+03	-8.92334E-01
 2.62302E+03	 3.46436E+00
 2.62575E+03	 9.03076E-01
 2.62849E+03	-3.99658E-01
 2.63122E+03	-2.95972E+00
 2.63395E+03	-3.00830E+00
 2.63668E+03	-1.05493E+00
 2.63940E+03	 1.01245E+00
 2.64213E+03	 3.64282E+00
 2.64485E+03	 3.66797E+00
 2.64757E+03	 8.08105E-01
 2.65029E+03	-9.83887E-02
 2.65301E+03	-3.10181E+00
 2.65573E+03	-2.13159E+00
 2.65845E+03	-9.21387E-01
 2.66116E+03	-8.58398E-01
 2.66387E+03	-1.93555E+00
 2.66658E+03	-1.11523E+00
 2.66929E+03	-1.35425E+00
 2.67200E+03	 1.31104E+00
 2.67471E+03	 2.51245E+00
 2.67741E+03	 2.10596E+00
 2.68012E+03	 1.22266E+00
 2.68282E+03	-1.95752E+00
 2.68552E+03	-2.38306E+00
 2.68822E+03	-7.83447E-01
 2.69091E+03	 4.56055E-01
 2.69361E+03	 2.06567E+00
 2.69630E+03	 5.16357E-01
 2.69899E+03	 1.48999E+00
 2.70168E+03	 3.19800E+00
 2.70437E+03	 1.29492E+00
 2.70706E+03	-1.58447E-01
 2.70975E+03	-1.21582E+00
 2.71243E+03	-1.42236E+00
 2.71511E+03	-3.02490E-01
 2.71780E+03	 1.27930E-01
 2.72048E+03	 1.56738E-01
 2.72315E+03	-1.43652E+00
 2.72583E+03	-1.96436E+00
 2.72851E+03	-1.53442E+00
 2.73118E+03	 1.35938E+00
 2.73385E+03	 2.09033E+00
 2.73652E+03	 3.86963E-01
 2.73919E+03	-1.00269E+00
 2.74186E+03	-7.92969E-01
 2.74453E+03	-1.33472E+00
 2.74719E+03	-1.38794E+00
 2.74985E+03	-1.65234E+00
 2.75251E+03	 7.40967E-01
 2.75517E+03	 1.44946E+00
 2.75783E+03	 2.65356E+00
 2.76049E+03	 2.20874E+00
 2.76315E+03	 1.15063E+00
 2.76580E+03	 2.71729E+00
 2.76845E+03	 1.57300E+00
 2.77110E+03	-7.51709E-01
 2.77375E+03	-1.94678E+00
 2.77640E+03	-3.97241E+00
 2.77905E+03	-4.45410E+00
 2.78169E+03	-1.35791E+00
 2.78433E+03	 3.36035E+00
 2.78698E+03	 2.73315E+00
 2.78962E+03	 2.03125E+00
 2.79226E+03	 2.06982E+00
 2.79489E+03	 8.81348E-02
 2.79753E+03	-7.10205E-01
 2.80016E+03	-1.10693E+00
 2.80280E+03	-1.44189E+00
 2.80543E+03	-4.97803E-01
 2.80806E+03	-9.53369E-01
 2.81068E+03	-5.88379E-02
 2.81331E+03	-1.47168E+00
 2.81594E+03	-2.42920E-01
 2.81856E+03	 7.27051E-01
 2.82118E+03	-9.94873E-01
 2.82380E+03	-1.82373E-01
 2.82642E+03	 1.86230E+00
 2.82904E+03	 2.09814E+00
 2.83166E+03	 3.83228E+00
 2.83427E+03	 2.90332E+00
 2.83689E+03	 4.31885E-01
 2.83950E+03	-2.38257E+00
 2.84211E+03	-2.90015E+00
 2.84472E+03	-6.11328E-01
 2.84732E+03	 1.23291E-01
 2.84993E+03	 6.87988E-01
 2.85253E+03	 1.81152E-01
 2.85514E+03	-7.80518E-01
 2.85774E+03	-1.98242E-01
 2.86034E+03	 2.30249E+00
 2.86294E+03	 3.02368E+00
 2.86553E+03	 3.02417E+00
 2.86813E+03	 2.99561E-01
 2.87072E+03	-2.31055E+00
 2.87332E+03	-3.21924E+00
 2.87591E+03	-2.79639E+00
 2.87850E+03	-2.26294E+00
 2.88109E+03	-1.19629E-01
 2.88367E+03	 1.53125E+00
 2.88626E+03	 1.20947E+00
 2.88884E+03	 5.86182E-01
 2.89142E+03	 7.58057E-01
 2.89401E+03	-3.66455E-01
 2.89659E+03	-2.61060E+00
 2.89916E+03	-6.71143E-01
 2.90174E+03	 1.63110E+00
 2.90432E+03	 1.60181E+00
 2.90689E+03	 1.06152E+00
 2.90946E+03	 1.32788E+00
 2.91203E+03	 1.66016E-02
 2.91460E+03	-3.02979E-01
 2.91717E+03	 3.61328E-02
 2.91974E+03	 9.55811E-01
 2.92230E+03	-1.82617E-01
 2.92486E+03	-1.18750E+00
 2.92743E+03	-2.06567E+00
 2.92999E+03	-2.02368E+00
 2.93255E+03	-1.98779E+00
 2.93510E+03	-3.92090E-01
 2.93766E+03	 4.23340E-01
 2.94021E+03	 1.62280E+00
 2.94277E+03	 1.28955E+00
 2.94532E+03	 1.19019E+00
 2.94787E+03	 8.65723E-01
 2.95042E+03	 1.53784E+00
 2.95297E+03	 2.17627E+00
 2.95551E+03	 2.09595E+00
 2.95806E+03	 6.54541E-01
 2.96060E+03	-1.28735E+00
 2.96314E+03	-2.69214E+00
 2.96568E+03	-1.47900E+00
 2.96822E+03	 1.18799E+00
 2.97076E+03	 1.92188E+00
 2.97330E+03	 4.33105E-01
 2.97583E+03	-9.25049E-01
 2.97837E+03	-8.64746E-01
 2.98090E+03	 8.39844E-02
 2.98343E+03	 1.96313E+00
 2.98596E+03	 1.69067E+00
 2.98849E+03	 4.05273E-01
 2.99101E+03	-1.96777E+00
 2.99354E+03	-2.79565E+00
 2.99606E+03	-2.78027E+00
 2.99858E+03	-8.62793E-01
 3.00110E+03	 3.71338E-01
 3.00362E+03	 7.69043E-01
 3.00614E+03	 3.63770E-02
 3.00866E+03	-3.33740E-01
 3.01117E+03	-1.92310E+00
 3.01369E+03	-1.44971E+00
 3.01620E+03	-3.03467E-01
 3.01871E+03	 8.97705E-01
 3.02122E+03	 3.51807E-01
 3.02373E+03	 2.39160E+00
 3.02623E+03	 4.03784E+00
 3.02874E+03	 4.63672E+00
 3.03124E+03	 2.17041E+00
 3.03374E+03	 5.52246E-01
 3.03625E+03	-1.19067E+00
 3.03875E+03	-1.36206E+00
 3.04124E+03	-1.14746E-01
 3.04374E+03	 8.44482E-01
 3.04624E+03	-4.71191E-01
 3.04873E+03	-1.99341E+00
 3.05122E+03	-1.68604E+00
 3.05371E+03	 7.20459E-01
 3.05620E+03	 9.36523E-01
 3.05869E+03	 1.66602E+00
 3.06118E+03	 1.60400E+00
 3.06367E+03	 1.37451E-01
 3.06615E+03	-9.12354E-01
 3.06863E+03	-5.51270E-01
 3.07111E+03	-7.82959E-01
 3.07359E+03	-1.06543E+00
 3.07607E+03	-5.54688E-01
 3.07855E+03	 8.24219E-01
 3.08103E+03	 5.04150E-01
 3.08350E+03	 1.03882E+00
 3.08598E+03	 1.60547E+00
 3.08845E+03	 2.39282E+00
 3.09092E+03	 2.32983E+00
 3.09339E+03	 2.09741E+00
 3.09586E+03	 3.99902E-01
 3.09832E+03	-1.65308E+00
 3.10079E+03	-2.46436E+00
