X-Axis	NPA w/ HMB-1 (CRR) (SG) (Sub BG)
-3.97831E+02	 4.00195E+00
-3.93106E+02	 2.91699E+00
-3.88385E+02	 8.07861E-01
-3.83668E+02	-7.53174E-01
-3.78954E+02	-3.94531E-01
-3.74244E+02	-6.16455E-01
-3.69537E+02	-6.67969E-01
-3.64833E+02	-9.49707E-02
-3.60133E+02	-8.95264E-01
-3.55437E+02	-8.91357E-01
-3.50744E+02	-7.16797E-01
-3.46054E+02	 5.55420E-01
-3.41368E+02	 7.44873E-01
-3.36685E+02	 1.06177E+00
-3.32006E+02	 6.81152E-01
-3.27330E+02	-3.61572E-01
-3.22658E+02	-1.21582E+00
-3.17989E+02	 4.76074E-02
-3.13323E+02	-5.17578E-01
-3.08661E+02	 1.30249E+00
-3.04002E+02	 4.23584E-01
-2.99347E+02	-2.89307E-01
-2.94695E+02	-1.14673E+00
-2.90047E+02	-1.71191E+00
-2.85402E+02	-2.73340E+00
-2.80760E+02	-7.87842E-01
-2.76122E+02	 1.23364E+00
-2.71487E+02	 2.56128E+00
-2.66855E+02	 7.42676E-01
-2.62227E+02	 9.48730E-01
-2.57603E+02	-5.14893E-01
-2.52981E+02	-8.82324E-01
-2.48363E+02	-2.73438E-01
-2.43749E+02	 1.24121E+00
-2.39138E+02	 6.56738E-01
-2.34530E+02	 1.76270E-01
-2.29925E+02	-4.68262E-01
-2.25324E+02	-1.53857E+00
-2.20726E+02	-1.33838E+00
-2.16132E+02	-4.18945E-01
-2.11541E+02	 2.23145E-01
-2.06953E+02	 1.44678E+00
-2.02369E+02	 8.58887E-01
-1.97788E+02	 2.66113E-01
-1.93210E+02	 4.97803E-01
-1.88636E+02	 7.53662E-01
-1.84065E+02	 9.01123E-01
-1.79497E+02	 2.60254E-01
-1.74932E+02	 3.09814E-01
-1.70371E+02	-1.54321E+00
-1.65814E+02	-3.61450E+00
-1.61259E+02	-3.88770E+00
-1.56708E+02	-1.92798E+00
-1.52160E+02	-4.75342E-01
-1.47615E+02	 7.60742E-01
-1.43074E+02	 1.88110E+00
-1.38536E+02	 1.09961E+00
-1.34001E+02	-7.82227E-01
-1.29470E+02	-1.25879E+00
-1.24942E+02	 2.26318E-01
-1.20417E+02	 1.66309E+00
-1.15896E+02	 1.59351E+00
-1.11377E+02	 3.06201E+00
-1.06862E+02	 2.35620E+00
-1.02350E+02	-2.55371E-01
-9.78419E+01	-1.86914E+00
-9.33366E+01	-1.29663E+00
-8.88346E+01	-1.06226E+00
-8.43359E+01	 4.75586E-01
-7.98404E+01	 7.82959E-01
-7.53481E+01	-6.22559E-01
-7.08591E+01	-2.20972E+00
-6.63733E+01	-1.09814E+00
-6.18908E+01	-1.10718E+00
-5.74114E+01	-1.22510E+00
-5.29353E+01	-1.76611E+00
-4.84625E+01	-3.27393E+00
-4.39928E+01	-3.87036E+00
-3.95264E+01	-1.95435E+00
-3.50632E+01	-8.01758E-01
-3.06031E+01	-3.24780E+00
-2.61463E+01	-3.42627E+00
-2.16927E+01	-2.29028E+00
-1.72423E+01	-4.26465E+00
-1.27951E+01	 3.40088E+00
-8.35111E+00	 2.16138E+01
-3.91029E+00	 3.86865E+01
 5.27351E-01	 4.87271E+01
 4.96181E+00	 4.28027E+01
 9.39308E+00	 3.07729E+01
 1.38212E+01	 1.05010E+01
 1.82461E+01	-1.21841E+01
 2.26679E+01	-3.03149E+01
 2.70865E+01	-3.22979E+01
 3.15019E+01	-4.85708E+01
 3.59141E+01	-8.86445E+01
 4.03233E+01	-4.30430E+01
 4.47292E+01	 5.85244E+01
 4.91320E+01	 1.40996E+01
 5.35317E+01	 1.49278E+02
 5.79282E+01	 9.00639E+02
 6.23216E+01	 1.73981E+03
 6.67118E+01	 2.52208E+03
 7.10989E+01	 3.16889E+03
 7.54829E+01	 3.64864E+03
 7.98637E+01	 3.95116E+03
 8.42415E+01	 4.08499E+03
 8.86161E+01	 4.09407E+03
 9.29876E+01	 3.98065E+03
 9.73559E+01	 3.80501E+03
 1.01721E+02	 3.62970E+03
 1.06083E+02	 3.44982E+03
 1.10442E+02	 3.29039E+03
 1.14798E+02	 3.11184E+03
 1.19151E+02	 2.92408E+03
 1.23501E+02	 2.73179E+03
 1.27848E+02	 2.55014E+03
 1.32191E+02	 2.40491E+03
 1.36532E+02	 2.27480E+03
 1.40869E+02	 2.12810E+03
 1.45203E+02	 1.98067E+03
 1.49535E+02	 1.80245E+03
 1.53863E+02	 1.62311E+03
 1.58188E+02	 1.43737E+03
 1.62510E+02	 1.28689E+03
 1.66829E+02	 1.18126E+03
 1.71145E+02	 1.09912E+03
 1.75458E+02	 1.01905E+03
 1.79768E+02	 9.44404E+02
 1.84074E+02	 8.81233E+02
 1.88378E+02	 8.24086E+02
 1.92679E+02	 7.94266E+02
 1.96976E+02	 7.80085E+02
 2.01271E+02	 7.51301E+02
 2.05562E+02	 7.01888E+02
 2.09851E+02	 6.40366E+02
 2.14136E+02	 6.03463E+02
 2.18419E+02	 6.07057E+02
 2.22698E+02	 6.52681E+02
 2.26975E+02	 7.20612E+02
 2.31248E+02	 7.93206E+02
 2.35519E+02	 8.50169E+02
 2.39786E+02	 8.67483E+02
 2.44050E+02	 8.80863E+02
 2.48312E+02	 9.24365E+02
 2.52570E+02	 9.63226E+02
 2.56825E+02	 9.81333E+02
 2.61078E+02	 9.73851E+02
 2.65327E+02	 9.54694E+02
 2.69574E+02	 9.01135E+02
 2.73817E+02	 8.56528E+02
 2.78057E+02	 8.20890E+02
 2.82295E+02	 7.57132E+02
 2.86529E+02	 6.73471E+02
 2.90761E+02	 5.86337E+02
 2.94989E+02	 5.08351E+02
 2.99215E+02	 4.35232E+02
 3.03438E+02	 3.73092E+02
 3.07657E+02	 3.39203E+02
 3.11874E+02	 3.07241E+02
 3.16088E+02	 2.85676E+02
 3.20298E+02	 2.67305E+02
 3.24506E+02	 2.31385E+02
 3.28711E+02	 1.85373E+02
 3.32913E+02	 1.49435E+02
 3.37112E+02	 1.35131E+02
 3.41308E+02	 1.30112E+02
 3.45501E+02	 1.24790E+02
 3.49691E+02	 1.12798E+02
 3.53879E+02	 8.72271E+01
 3.58063E+02	 6.09795E+01
 3.62244E+02	 4.84678E+01
 3.66423E+02	 5.24487E+01
 3.70598E+02	 4.93672E+01
 3.74771E+02	 5.15190E+01
 3.78941E+02	 5.28223E+01
 3.83108E+02	 5.93652E+01
 3.87272E+02	 6.41797E+01
 3.91433E+02	 6.76216E+01
 3.95591E+02	 7.11499E+01
 3.99746E+02	 6.94727E+01
 4.03898E+02	 5.89868E+01
 4.08048E+02	 4.74761E+01
 4.12194E+02	 4.40557E+01
 4.16338E+02	 5.96392E+01
 4.20479E+02	 6.20972E+01
 4.24617E+02	 6.32559E+01
 4.28752E+02	 5.00371E+01
 4.32884E+02	 1.57500E+01
 4.37013E+02	-1.61802E+01
 4.41140E+02	-3.43911E+01
 4.45263E+02	-2.43701E+01
 4.49384E+02	-1.26426E+01
 4.53502E+02	-3.47949E+00
 4.57617E+02	 1.40225E+01
 4.61729E+02	 2.24395E+01
 4.65838E+02	 2.74424E+01
 4.69945E+02	 1.76304E+01
 4.74048E+02	 1.13130E+01
 4.78149E+02	 2.55161E+01
 4.82247E+02	 3.18159E+01
 4.86342E+02	 2.55801E+01
 4.90434E+02	 1.47769E+01
 4.94524E+02	-6.06982E+00
 4.98610E+02	-7.83496E+00
 5.02694E+02	 8.94238E+00
 5.06775E+02	 3.34014E+01
 5.10853E+02	 3.83452E+01
 5.14929E+02	 1.64346E+01
 5.19001E+02	 4.64502E+00
 5.23071E+02	 9.69238E-01
 5.27138E+02	-9.33496E+00
 5.31202E+02	-1.55151E+01
 5.35263E+02	-2.78374E+01
 5.39322E+02	-2.51509E+01
 5.43377E+02	-5.74756E+00
 5.47430E+02	 1.37061E+01
 5.51480E+02	 2.36616E+01
 5.55528E+02	 1.18442E+01
 5.59572E+02	 7.17773E-02
 5.63614E+02	-6.09082E+00
 5.67653E+02	-5.75879E+00
 5.71689E+02	-3.47803E+00
 5.75723E+02	-9.47119E+00
 5.79753E+02	-2.82588E+01
 5.83781E+02	-4.56250E+01
 5.87806E+02	-4.26475E+01
 5.91829E+02	-2.60889E+01
 5.95848E+02	-4.77979E+00
 5.99865E+02	 2.42549E+01
 6.03879E+02	 3.76616E+01
 6.07891E+02	 2.60171E+01
 6.11899E+02	 6.46484E+00
 6.15905E+02	 2.13379E-01
 6.19908E+02	 6.76807E+00
 6.23908E+02	 1.69854E+01
 6.27906E+02	 3.70928E+01
 6.31901E+02	 4.67339E+01
 6.35893E+02	 4.10020E+01
 6.39882E+02	 2.16113E+01
 6.43869E+02	 7.82617E+00
 6.47853E+02	 9.51709E+00
 6.51834E+02	 1.08330E+01
 6.55813E+02	 1.22642E+01
 6.59789E+02	 1.07847E+01
 6.63762E+02	 9.05225E+00
 6.67732E+02	 1.91885E+01
 6.71700E+02	 3.40640E+01
 6.75665E+02	 6.42866E+01
 6.79627E+02	 9.34243E+01
 6.83587E+02	 9.67939E+01
 6.87544E+02	 8.49556E+01
 6.91498E+02	 7.15220E+01
 6.95449E+02	 4.95225E+01
 6.99398E+02	 3.20679E+01
 7.03344E+02	 1.70913E+01
 7.07288E+02	 1.03896E+01
 7.11228E+02	 4.85156E+00
 7.15166E+02	 1.64063E+00
 7.19102E+02	 7.68701E+00
 7.23034E+02	 4.21680E+00
 7.26965E+02	-1.05122E+01
 7.30892E+02	-1.92515E+01
 7.34817E+02	-2.23271E+01
 7.38739E+02	-1.52441E+01
 7.42658E+02	 2.72314E+00
 7.46575E+02	 1.13940E+01
 7.50489E+02	 9.12305E+00
 7.54400E+02	-4.17188E+00
 7.58309E+02	-2.53628E+01
 7.62215E+02	-3.76284E+01
 7.66119E+02	-2.81631E+01
 7.70019E+02	 4.76563E-01
 7.73918E+02	 3.20171E+01
 7.77813E+02	 5.28530E+01
 7.81706E+02	 5.83315E+01
 7.85596E+02	 4.27363E+01
 7.89484E+02	 3.21660E+01
 7.93369E+02	 2.54263E+01
 7.97251E+02	 1.71543E+01
 8.01131E+02	 2.04097E+01
 8.05008E+02	 2.12876E+01
 8.08883E+02	 2.64941E+01
 8.12755E+02	 3.11631E+01
 8.16624E+02	 3.04790E+01
 8.20491E+02	 3.83408E+01
 8.24355E+02	 5.17075E+01
 8.28217E+02	 6.95396E+01
 8.32075E+02	 7.48740E+01
 8.35932E+02	 6.28779E+01
 8.39785E+02	 6.23037E+01
 8.43637E+02	 5.42456E+01
 8.47485E+02	 3.43433E+01
 8.51331E+02	 1.81157E+01
 8.55174E+02	-5.17920E+00
 8.59015E+02	-2.18975E+01
 8.62853E+02	-1.69155E+01
 8.66689E+02	 2.49951E+00
 8.70522E+02	 1.81152E+01
 8.74352E+02	 3.56543E+00
 8.78180E+02	-1.36694E+01
 8.82006E+02	-2.69971E+01
 8.85828E+02	-1.92158E+01
 8.89648E+02	 7.81787E+00
 8.93466E+02	 3.18799E+01
 8.97281E+02	 3.37773E+01
 9.01094E+02	 1.87988E+01
 9.04904E+02	 4.87988E+00
 9.08711E+02	-7.31201E+00
 9.12516E+02	-4.02197E+00
 9.16318E+02	 8.09570E+00
 9.20118E+02	 5.60596E+00
 9.23915E+02	-1.48447E+01
 9.27710E+02	-2.80610E+01
 9.31502E+02	-2.15479E+01
 9.35292E+02	-1.64971E+01
 9.39079E+02	-1.20117E+00
 9.42863E+02	 1.83398E+01
 9.46645E+02	 9.20020E+00
 9.50425E+02	-1.66699E+01
 9.54202E+02	-3.35894E+01
 9.57976E+02	-1.82627E+01
 9.61748E+02	 6.12305E+00
 9.65517E+02	 3.29927E+01
 9.69284E+02	 3.93438E+01
 9.73049E+02	 3.12744E+00
 9.76811E+02	-1.78931E+01
 9.80570E+02	-7.40479E+00
 9.84327E+02	 2.07627E+01
 9.88081E+02	 4.88755E+01
 9.91833E+02	 6.42583E+01
 9.95583E+02	 7.22754E+01
 9.99329E+02	 6.82178E+01
 1.00307E+03	 6.62656E+01
 1.00682E+03	 6.33257E+01
 1.01056E+03	 3.41006E+01
 1.01429E+03	 3.21338E+00
 1.01803E+03	 2.63525E+00
 1.02176E+03	 2.02759E+01
 1.02549E+03	 3.02544E+01
 1.02922E+03	 1.87959E+01
 1.03294E+03	-5.07080E+00
 1.03666E+03	-2.58384E+01
 1.04038E+03	-2.83838E+01
 1.04410E+03	-2.48486E+00
 1.04781E+03	 2.98438E+01
 1.05153E+03	 3.84790E+01
 1.05524E+03	 2.39238E+01
 1.05894E+03	-1.98486E+00
 1.06265E+03	-8.17920E+00
 1.06635E+03	-1.98745E+01
 1.07005E+03	-9.84863E+00
 1.07375E+03	 3.86475E+00
 1.07744E+03	 1.55674E+01
 1.08114E+03	 3.13057E+01
 1.08483E+03	 3.23193E+01
 1.08851E+03	 1.65908E+01
 1.09220E+03	 8.23730E-01
 1.09588E+03	-2.17632E+01
 1.09956E+03	-1.64019E+01
 1.10324E+03	-1.75586E+00
 1.10692E+03	 1.60420E+01
 1.11059E+03	 1.34341E+01
 1.11426E+03	-6.52832E+00
 1.11793E+03	-2.37935E+01
 1.12159E+03	-2.91943E+01
 1.12526E+03	-2.44219E+01
 1.12892E+03	-5.95557E+00
 1.13258E+03	 8.10107E+00
 1.13623E+03	 1.27900E+01
 1.13989E+03	 1.06792E+01
 1.14354E+03	 1.07944E+01
 1.14719E+03	 6.19824E+00
 1.15084E+03	 4.80078E+00
 1.15448E+03	 1.12017E+01
 1.15812E+03	 1.36743E+01
 1.16176E+03	 1.20718E+01
 1.16540E+03	 5.50781E+00
 1.16903E+03	 6.73340E-01
 1.17267E+03	-1.31055E+00
 1.17630E+03	 6.56445E+00
 1.17992E+03	 1.58760E+01
 1.18355E+03	 1.74644E+01
 1.18717E+03	 1.58145E+01
 1.19079E+03	 1.54727E+01
 1.19441E+03	 1.88359E+01
 1.19803E+03	 1.30063E+01
 1.20164E+03	 9.06836E+00
 1.20525E+03	 2.37354E+00
 1.20886E+03	-1.21113E+01
 1.21246E+03	-2.14565E+01
 1.21607E+03	-2.03716E+01
 1.21967E+03	-7.40820E+00
 1.22327E+03	 7.49414E+00
 1.22687E+03	 2.42339E+01
 1.23046E+03	 3.51177E+01
 1.23405E+03	 2.14766E+01
 1.23764E+03	-2.93457E+00
 1.24123E+03	-2.34370E+01
 1.24482E+03	-2.63198E+01
 1.24840E+03	-8.66797E+00
 1.25198E+03	 1.00869E+01
 1.25556E+03	 2.65151E+01
 1.25913E+03	 2.34678E+01
 1.26271E+03	 1.62026E+01
 1.26628E+03	 2.34277E+00
 1.26985E+03	 4.75586E-01
 1.27341E+03	 1.19556E+01
 1.27698E+03	 1.42803E+01
 1.28054E+03	 9.26270E+00
 1.28410E+03	 1.20332E+01
 1.28766E+03	 6.84814E+00
 1.29121E+03	-1.44775E+00
 1.29476E+03	-5.53125E+00
 1.29831E+03	-6.29492E+00
 1.30186E+03	-1.03062E+01
 1.30541E+03	-1.10405E+01
 1.30895E+03	 1.04785E+00
 1.31249E+03	 5.75928E+00
 1.31603E+03	 7.26465E+00
 1.31957E+03	 1.26050E+01
 1.32310E+03	 8.89258E+00
 1.32663E+03	 2.43115E+00
 1.33016E+03	 6.25391E+00
 1.33369E+03	 2.68066E-01
 1.33722E+03	-1.02764E+01
 1.34074E+03	-1.88252E+01
 1.34426E+03	-1.23384E+01
 1.34778E+03	 2.51416E+00
 1.35129E+03	 2.56982E+01
 1.35481E+03	 4.41670E+01
 1.35832E+03	 3.75752E+01
 1.36183E+03	 1.94595E+01
 1.36534E+03	 1.29727E+01
 1.36884E+03	 1.64360E+01
 1.37234E+03	 1.61870E+01
 1.37584E+03	 1.57671E+01
 1.37934E+03	 1.63418E+01
 1.38284E+03	 1.24854E+01
 1.38633E+03	 1.44360E+01
 1.38982E+03	 1.05430E+01
 1.39331E+03	-2.08057E+00
 1.39680E+03	-1.25264E+01
 1.40028E+03	-1.63945E+01
 1.40376E+03	-1.02402E+01
 1.40724E+03	 1.85986E+00
 1.41072E+03	 1.09048E+01
 1.41420E+03	 1.50220E+01
 1.41767E+03	 1.27925E+01
 1.42114E+03	 1.47520E+01
 1.42461E+03	 1.49663E+01
 1.42808E+03	 1.09170E+01
 1.43154E+03	 1.19395E+01
 1.43500E+03	 2.21709E+01
 1.43846E+03	 2.55454E+01
 1.44192E+03	 2.34570E+01
 1.44537E+03	 9.53564E+00
 1.44883E+03	-5.92773E+00
 1.45228E+03	-1.57134E+01
 1.45573E+03	-9.20117E+00
 1.45917E+03	 1.70059E+01
 1.46262E+03	 3.50337E+01
 1.46606E+03	 3.64741E+01
 1.46950E+03	 2.78501E+01
 1.47294E+03	 1.01006E+01
 1.47637E+03	-1.49468E+01
 1.47981E+03	-3.87559E+01
 1.48324E+03	-2.87544E+01
 1.48667E+03	-6.03516E+00
 1.49009E+03	 1.81543E+01
 1.49352E+03	 3.18306E+01
 1.49694E+03	 3.15718E+01
 1.50036E+03	 1.85332E+01
 1.50378E+03	 4.41895E-01
 1.50720E+03	-3.79492E+00
 1.51061E+03	 3.60400E+00
 1.51402E+03	 3.61475E+00
 1.51743E+03	 1.23813E+01
 1.52084E+03	 1.49912E+01
 1.52424E+03	 1.87739E+01
 1.52764E+03	 1.86890E+01
 1.53105E+03	 1.47412E+01
 1.53444E+03	 1.00000E+01
 1.53784E+03	 1.44214E+01
 1.54123E+03	 1.78682E+01
 1.54463E+03	 1.74844E+01
 1.54802E+03	 1.37510E+01
 1.55140E+03	 1.47813E+01
 1.55479E+03	 1.89595E+01
 1.55817E+03	 1.58257E+01
 1.56155E+03	 1.61167E+01
 1.56493E+03	 1.12476E+01
 1.56831E+03	 2.72900E+00
 1.57168E+03	 4.27246E+00
 1.57506E+03	 6.80664E+00
 1.57843E+03	 1.11147E+01
 1.58180E+03	 1.25620E+01
 1.58516E+03	 1.68164E+00
 1.58853E+03	-2.35352E-01
 1.59189E+03	 3.96289E+00
 1.59525E+03	 1.86260E+01
 1.59861E+03	 2.27358E+01
 1.60196E+03	 2.06001E+01
 1.60531E+03	 1.47612E+01
 1.60867E+03	 4.34375E+00
 1.61202E+03	 3.45068E+00
 1.61536E+03	 9.62549E+00
 1.61871E+03	 1.05479E+01
 1.62205E+03	 8.55859E+00
 1.62539E+03	 4.85352E-01
 1.62873E+03	-1.44971E+00
 1.63207E+03	-8.06738E+00
 1.63540E+03	-3.65723E-01
 1.63873E+03	 2.71875E+00
 1.64206E+03	 3.90771E+00
 1.64539E+03	 1.54102E+00
 1.64872E+03	-5.53174E+00
 1.65204E+03	-7.55615E+00
 1.65536E+03	 2.04492E+00
 1.65868E+03	 5.94385E+00
 1.66200E+03	 8.37207E+00
 1.66532E+03	-6.73828E-02
 1.66863E+03	-2.40332E+00
 1.67194E+03	-6.90723E+00
 1.67525E+03	-1.28711E+00
 1.67856E+03	 1.03970E+01
 1.68186E+03	 1.24272E+01
 1.68516E+03	 7.62988E+00
 1.68847E+03	 2.57275E+00
 1.69176E+03	-8.62549E+00
 1.69506E+03	-9.28711E+00
 1.69836E+03	-3.76904E+00
 1.70165E+03	 5.08887E+00
 1.70494E+03	 8.08398E+00
 1.70823E+03	 4.36523E-01
 1.71151E+03	-6.75537E+00
 1.71480E+03	-1.36460E+01
 1.71808E+03	-5.09277E+00
 1.72136E+03	 4.86768E+00
 1.72464E+03	 8.69434E+00
 1.72792E+03	 7.98828E+00
 1.73119E+03	 1.54150E+00
 1.73446E+03	 3.32178E+00
 1.73773E+03	 6.45557E+00
 1.74100E+03	 4.46680E+00
 1.74427E+03	-9.08691E-01
 1.74753E+03	-1.06772E+01
 1.75079E+03	-1.49702E+01
 1.75405E+03	-1.18691E+01
 1.75731E+03	 1.61426E+00
 1.76057E+03	 1.35063E+01
 1.76382E+03	 1.35059E+01
 1.76707E+03	 1.69443E+01
 1.77032E+03	 1.10293E+01
 1.77357E+03	 4.92041E+00
 1.77681E+03	 3.22949E+00
 1.78006E+03	 7.62695E-01
 1.78330E+03	-1.52637E+00
 1.78654E+03	-2.12207E+00
 1.78978E+03	-9.09668E-01
 1.79301E+03	 2.21240E+00
 1.79625E+03	-6.55664E+00
 1.79948E+03	-6.41748E+00
 1.80271E+03	-6.76318E+00
 1.80593E+03	-8.18799E+00
 1.80916E+03	-2.90430E+00
 1.81238E+03	 8.43750E-01
 1.81560E+03	 4.90479E+00
 1.81882E+03	 1.98750E+01
 1.82204E+03	 2.96313E+01
 1.82526E+03	 3.77920E+01
 1.82847E+03	 3.98354E+01
 1.83168E+03	 4.24189E+01
 1.83489E+03	 4.35063E+01
 1.83810E+03	 3.93604E+01
 1.84130E+03	 3.42935E+01
 1.84451E+03	 2.64858E+01
 1.84771E+03	 1.13828E+01
 1.85091E+03	 1.36670E+00
 1.85411E+03	-6.60498E+00
 1.85730E+03	-9.89307E+00
 1.86049E+03	-4.12939E+00
 1.86369E+03	 7.89209E+00
 1.86688E+03	 1.63657E+01
 1.87006E+03	 1.64580E+01
 1.87325E+03	 9.34033E+00
 1.87643E+03	-2.17432E+00
 1.87961E+03	-3.34082E+00
 1.88279E+03	 3.51953E+00
 1.88597E+03	 4.39746E+00
 1.88915E+03	 5.84473E-01
 1.89232E+03	-4.72656E+00
 1.89549E+03	-1.52930E+00
 1.89866E+03	 4.44043E+00
 1.90183E+03	 7.81348E+00
 1.90500E+03	 8.36377E+00
 1.90816E+03	 4.47412E+00
 1.91132E+03	 1.17676E-01
 1.91448E+03	-4.61230E+00
 1.91764E+03	-5.58057E+00
 1.92080E+03	-8.21777E-01
 1.92395E+03	 3.45508E+00
 1.92710E+03	 7.13232E+00
 1.93025E+03	 5.93164E+00
 1.93340E+03	 5.96338E+00
 1.93655E+03	 2.75391E+00
 1.93969E+03	 1.51855E+00
 1.94284E+03	 9.56543E-01
 1.94598E+03	-2.24609E-02
 1.94912E+03	-6.63574E-01
 1.95225E+03	-2.18066E+00
 1.95539E+03	-3.07520E+00
 1.95852E+03	-4.28125E+00
 1.96165E+03	-3.55566E+00
 1.96478E+03	 8.51074E-01
 1.96791E+03	 5.04004E+00
 1.97103E+03	 8.70654E+00
 1.97416E+03	 1.03828E+01
 1.97728E+03	 6.24902E+00
 1.98040E+03	-1.89014E+00
 1.98352E+03	-6.05176E+00
 1.98663E+03	-1.14453E+00
 1.98975E+03	 3.50537E+00
 1.99286E+03	 4.73096E+00
 1.99597E+03	 8.40820E-01
 1.99908E+03	-2.97900E+00
 2.00218E+03	-6.18652E+00
 2.00529E+03	-2.69971E+00
 2.00839E+03	 8.40967E+00
 2.01149E+03	 1.91836E+01
 2.01459E+03	 1.58906E+01
 2.01769E+03	 6.69922E+00
 2.02078E+03	 3.27246E+00
 2.02387E+03	 1.40527E+00
 2.02696E+03	 5.32227E-01
 2.03005E+03	-9.69727E-01
 2.03314E+03	-2.87305E+00
 2.03623E+03	-3.94678E+00
 2.03931E+03	-2.07471E+00
 2.04239E+03	 4.09521E+00
 2.04547E+03	 8.01318E+00
 2.04855E+03	 3.90381E+00
 2.05163E+03	 3.80615E+00
 2.05470E+03	 1.30322E+00
 2.05777E+03	-4.03076E+00
 2.06084E+03	-2.26074E+00
 2.06391E+03	-1.16162E+00
 2.06698E+03	-9.47754E-01
 2.07004E+03	-9.62891E-01
 2.07310E+03	-1.72363E-01
 2.07617E+03	 3.86182E+00
 2.07923E+03	 2.65332E+00
 2.08228E+03	 2.80713E+00
 2.08534E+03	 3.48584E+00
 2.08839E+03	-9.76563E-01
 2.09144E+03	 2.65625E-01
 2.09449E+03	 1.17920E+00
 2.09754E+03	 3.43994E+00
 2.10059E+03	 2.55029E+00
 2.10363E+03	-2.04102E-01
 2.10667E+03	-5.83496E-01
 2.10972E+03	 6.81641E-01
 2.11275E+03	 3.50781E+00
 2.11579E+03	 3.84619E+00
 2.11883E+03	 2.12793E+00
 2.12186E+03	 1.62842E+00
 2.12489E+03	 1.79980E+00
 2.12792E+03	 4.60352E+00
 2.13095E+03	 5.69873E+00
 2.13397E+03	 4.74365E+00
 2.13700E+03	 3.09619E+00
 2.14002E+03	 1.11182E+00
 2.14304E+03	 2.92725E+00
 2.14606E+03	 7.44922E+00
 2.14908E+03	 8.69873E+00
 2.15209E+03	 5.40283E+00
 2.15511E+03	-1.74023E+00
 2.15812E+03	-4.32373E+00
 2.16113E+03	-4.82910E-01
 2.16413E+03	 4.85254E+00
 2.16714E+03	 9.08789E+00
 2.17014E+03	 7.56787E+00
 2.17315E+03	-6.17188E-01
 2.17615E+03	-4.72461E+00
 2.17915E+03	-4.87695E+00
 2.18214E+03	-6.36719E-01
 2.18514E+03	 6.15332E+00
 2.18813E+03	 7.95117E+00
 2.19112E+03	 5.52734E+00
 2.19411E+03	-1.70605E+00
 2.19710E+03	-6.10693E+00
 2.20009E+03	-4.41553E+00
 2.20307E+03	 1.84326E+00
 2.20605E+03	 1.23008E+01
 2.20903E+03	 1.85376E+01
 2.21201E+03	 1.40122E+01
 2.21499E+03	 6.24805E+00
 2.21796E+03	-5.46826E+00
 2.22094E+03	-9.71436E+00
 2.22391E+03	-8.00830E+00
 2.22688E+03	 1.95605E+00
 2.22985E+03	 1.05361E+01
 2.23281E+03	 1.45713E+01
 2.23578E+03	 1.43408E+01
 2.23874E+03	 1.01182E+01
 2.24170E+03	 2.04297E+00
 2.24466E+03	-3.45703E-01
 2.24762E+03	-1.21338E+00
 2.25058E+03	 2.16357E+00
 2.25353E+03	 4.76367E+00
 2.25648E+03	 6.21191E+00
 2.25943E+03	 2.11670E+00
 2.26238E+03	-4.17041E+00
 2.26533E+03	-7.19434E+00
 2.26827E+03	-1.35400E+00
 2.27122E+03	 4.02979E+00
 2.27416E+03	 7.28271E+00
 2.27710E+03	 5.38135E+00
 2.28004E+03	 5.82520E-01
 2.28297E+03	-2.91699E+00
 2.28591E+03	-5.13574E+00
 2.28884E+03	-2.79199E+00
 2.29177E+03	 2.44385E+00
 2.29470E+03	 5.06152E+00
 2.29763E+03	 4.06641E+00
 2.30055E+03	 2.20020E+00
 2.30348E+03	-8.02246E-01
 2.30640E+03	-2.20850E+00
 2.30932E+03	-2.51465E+00
 2.31224E+03	-4.07715E-01
 2.31516E+03	 1.60010E+00
 2.31807E+03	 8.81836E-01
 2.32099E+03	 5.90820E-01
 2.32390E+03	 1.41650E+00
 2.32681E+03	-8.00293E-01
 2.32972E+03	-1.78027E+00
 2.33262E+03	-2.92236E+00
 2.33553E+03	-2.29590E+00
 2.33843E+03	-7.06543E-01
 2.34133E+03	 1.70654E+00
 2.34423E+03	 2.30518E+00
 2.34713E+03	 2.58691E+00
 2.35003E+03	 2.00244E+00
 2.35292E+03	 1.08789E+00
 2.35581E+03	-5.05859E-01
 2.35871E+03	-8.79395E-01
 2.36160E+03	 2.34863E+00
 2.36448E+03	 1.61230E+00
 2.36737E+03	-1.56787E+00
 2.37025E+03	-3.54199E+00
 2.37314E+03	-2.91113E+00
 2.37602E+03	 1.34180E+00
 2.37890E+03	 5.51855E+00
 2.38177E+03	 7.14551E+00
 2.38465E+03	 4.47705E+00
 2.38752E+03	-1.68896E+00
 2.39040E+03	-2.54590E+00
 2.39327E+03	-2.10791E+00
 2.39614E+03	 1.60791E+00
 2.39900E+03	 1.17383E+00
 2.40187E+03	 1.10889E+00
 2.40473E+03	 2.29590E+00
 2.40760E+03	 3.33105E+00
 2.41046E+03	 3.91113E+00
 2.41332E+03	 3.11865E+00
 2.41617E+03	 1.73145E+00
 2.41903E+03	-2.08496E-01
 2.42188E+03	-2.43018E+00
 2.42473E+03	-1.45898E+00
 2.42758E+03	-2.05078E-01
 2.43043E+03	 9.81445E-02
 2.43328E+03	 1.16650E+00
 2.43613E+03	 2.39941E+00
 2.43897E+03	 2.05713E+00
 2.44181E+03	 3.14453E-01
 2.44465E+03	 5.73730E-01
 2.44749E+03	-6.14258E-01
 2.45033E+03	-4.19922E-01
 2.45316E+03	-1.94385E+00
 2.45600E+03	-1.45605E+00
 2.45883E+03	-3.38379E-01
 2.46166E+03	-7.34375E-01
 2.46449E+03	 8.76465E-01
 2.46732E+03	 6.95313E-01
 2.47014E+03	 1.04346E+00
 2.47296E+03	 1.02930E+00
 2.47579E+03	 3.32520E-01
 2.47861E+03	 9.65820E-01
 2.48143E+03	-5.00000E-01
 2.48424E+03	-2.13818E+00
 2.48706E+03	-5.60547E-01
 2.48987E+03	-6.25488E-01
 2.49268E+03	 2.04980E+00
 2.49549E+03	 2.02393E+00
 2.49830E+03	 2.17529E+00
 2.50111E+03	 1.89258E+00
 2.50392E+03	 6.93848E-01
 2.50672E+03	 2.93945E-01
 2.50952E+03	 6.63574E-01
 2.51232E+03	 1.94336E+00
 2.51512E+03	 5.46973E+00
 2.51792E+03	 8.95361E+00
 2.52072E+03	 1.21597E+01
 2.52351E+03	 9.58472E+00
 2.52630E+03	 2.59448E+00
 2.52909E+03	-3.26953E+00
 2.53188E+03	-5.16821E+00
 2.53467E+03	-3.22461E+00
 2.53746E+03	 2.25708E+00
 2.54024E+03	 7.14478E+00
 2.54302E+03	 6.22681E+00
 2.54580E+03	 3.85669E+00
 2.54858E+03	 3.01196E+00
 2.55136E+03	 2.73560E+00
 2.55414E+03	 2.25342E+00
 2.55691E+03	 2.49146E+00
 2.55968E+03	 1.05981E+00
 2.56246E+03	-1.08105E+00
 2.56523E+03	-3.46362E+00
 2.56799E+03	-1.63013E+00
 2.57076E+03	 4.67041E-01
 2.57353E+03	 3.82861E+00
 2.57629E+03	 6.34375E+00
 2.57905E+03	 5.49341E+00
 2.58181E+03	 2.62524E+00
 2.58457E+03	-4.69971E-01
 2.58733E+03	-1.39502E+00
 2.59008E+03	-1.36816E+00
 2.59283E+03	-9.10156E-01
 2.59559E+03	 8.32031E-01
 2.59834E+03	 1.62402E+00
 2.60109E+03	 2.49170E+00
 2.60383E+03	 4.52173E+00
 2.60658E+03	 4.37109E+00
 2.60932E+03	 5.55737E+00
 2.61207E+03	 4.67920E+00
 2.61481E+03	 2.92822E+00
 2.61755E+03	 3.00049E-01
 2.62028E+03	 3.35693E-01
 2.62302E+03	 1.22119E+00
 2.62575E+03	 1.85791E-01
 2.62849E+03	-1.46558E+00
 2.63122E+03	-2.68018E+00
 2.63395E+03	-1.76538E+00
 2.63668E+03	 5.66650E-01
 2.63940E+03	 4.93604E+00
 2.64213E+03	 6.43237E+00
 2.64485E+03	 2.60718E+00
 2.64757E+03	-1.52856E+00
 2.65029E+03	-2.60962E+00
 2.65301E+03	-2.64819E+00
 2.65573E+03	-5.08301E-01
 2.65845E+03	 1.53174E+00
 2.66116E+03	 2.90625E+00
 2.66387E+03	 2.26587E+00
 2.66658E+03	 3.88428E-01
 2.66929E+03	-3.35938E-01
 2.67200E+03	-1.68457E+00
 2.67471E+03	-6.77246E-01
 2.67741E+03	 7.35107E-01
 2.68012E+03	 2.50977E-01
 2.68282E+03	-1.98169E+00
 2.68552E+03	-2.31567E+00
 2.68822E+03	-1.82324E+00
 2.69091E+03	-2.78076E-01
 2.69361E+03	 2.04565E+00
 2.69630E+03	 1.24707E+00
 2.69899E+03	-1.50342E+00
 2.70168E+03	-2.35229E+00
 2.70437E+03	-2.98145E+00
 2.70706E+03	 7.94434E-01
 2.70975E+03	 2.87793E+00
 2.71243E+03	 4.76758E+00
 2.71511E+03	 4.67432E+00
 2.71780E+03	 2.68042E+00
 2.72048E+03	 2.62329E+00
 2.72315E+03	-9.12109E-01
 2.72583E+03	-1.96826E+00
 2.72851E+03	-1.62256E+00
 2.73118E+03	-7.68311E-01
 2.73385E+03	 4.23340E-01
 2.73652E+03	 1.46411E+00
 2.73919E+03	 2.28027E-01
 2.74186E+03	 4.57764E-01
 2.74453E+03	-1.83643E+00
 2.74719E+03	-1.00928E+00
 2.74985E+03	-2.21680E-01
 2.75251E+03	 7.29980E-01
 2.75517E+03	 6.92871E-01
 2.75783E+03	 1.16699E+00
 2.76049E+03	 7.86377E-01
 2.76315E+03	 2.49243E+00
 2.76580E+03	 1.39771E+00
 2.76845E+03	 1.59180E+00
 2.77110E+03	-1.83105E-02
 2.77375E+03	-3.38184E+00
 2.77640E+03	-4.02588E+00
 2.77905E+03	-2.86304E+00
 2.78169E+03	-5.10254E-02
 2.78433E+03	 3.20313E+00
 2.78698E+03	 4.32471E+00
 2.78962E+03	 3.17456E+00
 2.79226E+03	-5.68359E-01
 2.79489E+03	-3.33398E+00
 2.79753E+03	-2.13281E+00
 2.80016E+03	-1.44043E-01
 2.80280E+03	 2.64160E+00
 2.80543E+03	 3.11475E+00
 2.80806E+03	 5.10254E-02
 2.81068E+03	-2.56348E+00
 2.81331E+03	-1.94263E+00
 2.81594E+03	 1.70264E+00
 2.81856E+03	 3.82251E+00
 2.82118E+03	 4.64819E+00
 2.82380E+03	 2.96680E+00
 2.82642E+03	-3.35938E-01
 2.82904E+03	-1.65576E+00
 2.83166E+03	-1.77808E+00
 2.83427E+03	-1.70874E+00
 2.83689E+03	-1.79224E+00
 2.83950E+03	-1.86060E+00
 2.84211E+03	 4.77783E-01
 2.84472E+03	 2.92432E+00
 2.84732E+03	 5.46655E+00
 2.84993E+03	 5.90186E+00
 2.85253E+03	 3.83789E+00
 2.85514E+03	 3.01440E+00
 2.85774E+03	 4.85107E-01
 2.86034E+03	-6.68701E-01
 2.86294E+03	-5.73486E-01
 2.86553E+03	-1.13281E+00
 2.86813E+03	-1.62964E+00
 2.87072E+03	-7.82715E-01
 2.87332E+03	 6.02783E-01
 2.87591E+03	 2.23145E+00
 2.87850E+03	 2.02368E+00
 2.88109E+03	 1.29102E+00
 2.88367E+03	-4.78516E-01
 2.88626E+03	-1.73560E+00
 2.88884E+03	-1.59937E+00
 2.89142E+03	-4.73633E-01
 2.89401E+03	-5.82031E-01
 2.89659E+03	-1.31982E+00
 2.89916E+03	-2.18457E+00
 2.90174E+03	-2.86768E+00
 2.90432E+03	 2.12402E-01
 2.90689E+03	 2.83203E+00
 2.90946E+03	 4.38623E+00
 2.91203E+03	 4.65137E+00
 2.91460E+03	 4.01147E+00
 2.91717E+03	 3.29053E+00
 2.91974E+03	 3.08203E+00
 2.92230E+03	 1.40381E-01
 2.92486E+03	-1.07764E+00
 2.92743E+03	-2.43359E+00
 2.92999E+03	-2.38623E+00
 2.93255E+03	 6.45020E-01
 2.93510E+03	 2.88989E+00
 2.93766E+03	 5.63477E+00
 2.94021E+03	 4.28735E+00
 2.94277E+03	 1.94897E+00
 2.94532E+03	 2.08594E+00
 2.94787E+03	 5.10498E-01
 2.95042E+03	 2.00439E-01
 2.95297E+03	-1.63330E-01
 2.95551E+03	-1.40259E+00
 2.95806E+03	-1.56543E+00
 2.96060E+03	-2.00342E+00
 2.96314E+03	 5.12207E-01
 2.96568E+03	 1.25122E+00
 2.96822E+03	 2.71216E+00
 2.97076E+03	 3.85889E+00
 2.97330E+03	 4.14185E+00
 2.97583E+03	 4.12036E+00
 2.97837E+03	 3.17090E+00
 2.98090E+03	 1.89380E+00
 2.98343E+03	-4.00146E-01
 2.98596E+03	-3.22510E-01
 2.98849E+03	 1.34766E-01
 2.99101E+03	-5.15137E-01
 2.99354E+03	-1.22290E+00
 2.99606E+03	-7.01660E-01
 2.99858E+03	-5.27344E-02
 3.00110E+03	-5.11963E-01
 3.00362E+03	-8.15186E-01
 3.00614E+03	 2.02075E+00
 3.00866E+03	 1.73218E+00
 3.01117E+03	 3.33496E-01
 3.01369E+03	 1.25488E-01
 3.01620E+03	-3.25928E-01
 3.01871E+03	-5.68604E-01
 3.02122E+03	-4.16260E-01
 3.02373E+03	 1.37939E+00
 3.02623E+03	 2.04761E+00
 3.02874E+03	 8.92822E-01
 3.03124E+03	 5.34424E-01
 3.03374E+03	 1.18896E+00
 3.03625E+03	-5.83496E-02
 3.03875E+03	-1.74829E+00
 3.04124E+03	-3.61450E+00
 3.04374E+03	-2.75928E+00
 3.04624E+03	-1.97754E+00
 3.04873E+03	-1.65771E-01
 3.05122E+03	 6.85303E-01
 3.05371E+03	 2.29150E+00
 3.05620E+03	 7.48047E-01
 3.05869E+03	 3.44971E-01
 3.06118E+03	 1.09888E+00
 3.06367E+03	 9.61182E-01
 3.06615E+03	 1.41772E+00
 3.06863E+03	-1.26465E-01
 3.07111E+03	-7.25098E-02
 3.07359E+03	-1.89453E-01
 3.07607E+03	 8.10059E-01
 3.07855E+03	 2.22144E+00
 3.08103E+03	 1.65698E+00
 3.08350E+03	-7.27051E-01
 3.08598E+03	-3.14160E+00
 3.08845E+03	-3.78101E+00
 3.09092E+03	-1.23120E+00
 3.09339E+03	 4.76318E-01
 3.09586E+03	 2.23364E+00
 3.09832E+03	 5.01465E-01
 3.10079E+03	-1.16870E+00
