X-Axis	NPA w/ HMB-1 pos2 (CRR) (SG) (Sub BG)
-3.97831E+02	 1.06958E+00
-3.93106E+02	 3.14697E-01
-3.88385E+02	 1.64282E+00
-3.83668E+02	 1.32373E+00
-3.78954E+02	 4.18457E-01
-3.74244E+02	 2.77588E-01
-3.69537E+02	 1.03467E+00
-3.64833E+02	 1.70264E+00
-3.60133E+02	 6.70898E-01
-3.55437E+02	-1.74268E+00
-3.50744E+02	-1.35327E+00
-3.46054E+02	-1.98438E+00
-3.41368E+02	-1.14111E+00
-3.36685E+02	 9.91211E-01
-3.32006E+02	 9.57275E-01
-3.27330E+02	 1.17188E+00
-3.22658E+02	 1.08398E+00
-3.17989E+02	 7.77832E-01
-3.13323E+02	 3.63525E-01
-3.08661E+02	-1.31592E-01
-3.04002E+02	-4.54590E-01
-2.99347E+02	-2.07544E+00
-2.94695E+02	-2.69556E+00
-2.90047E+02	-3.16162E-01
-2.85402E+02	 5.63721E-01
-2.80760E+02	 4.77539E-01
-2.76122E+02	-6.00830E-01
-2.71487E+02	-4.67041E-01
-2.66855E+02	-5.32227E-02
-2.62227E+02	-3.70117E-01
-2.57603E+02	 1.07129E+00
-2.52981E+02	 2.65137E-01
-2.48363E+02	-1.10962E+00
-2.43749E+02	-1.92456E+00
-2.39138E+02	-1.10400E+00
-2.34530E+02	-2.02393E-01
-2.29925E+02	-6.00586E-01
-2.25324E+02	-2.76855E-01
-2.20726E+02	 2.76172E+00
-2.16132E+02	 2.50977E+00
-2.11541E+02	 1.74414E+00
-2.06953E+02	 2.86621E-01
-2.02369E+02	-3.65723E-01
-1.97788E+02	-2.16187E+00
-1.93210E+02	-2.19019E+00
-1.88636E+02	 6.63330E-01
-1.84065E+02	 1.97437E+00
-1.79497E+02	 1.22144E+00
-1.74932E+02	 8.98438E-01
-1.70371E+02	-7.65869E-01
-1.65814E+02	-2.08423E+00
-1.61259E+02	-1.19507E+00
-1.56708E+02	 2.44873E-01
-1.52160E+02	 1.91553E+00
-1.47615E+02	 2.03442E+00
-1.43074E+02	 7.76611E-01
-1.38536E+02	 1.97266E-01
-1.34001E+02	-7.51465E-01
-1.29470E+02	-8.73779E-01
-1.24942E+02	-1.31006E+00
-1.20417E+02	-9.23828E-01
-1.15896E+02	-1.68701E-01
-1.11377E+02	-1.45020E+00
-1.06862E+02	-5.77881E-01
-1.02350E+02	 7.64648E-01
-9.78419E+01	 5.79834E-01
-9.33366E+01	 6.12061E-01
-8.88346E+01	 7.59277E-01
-8.43359E+01	-1.29883E-01
-7.98404E+01	-1.02686E+00
-7.53481E+01	-1.39014E+00
-7.08591E+01	 1.48926E-02
-6.63733E+01	-1.09937E+00
-6.18908E+01	-7.12646E-01
-5.74114E+01	-1.50317E+00
-5.29353E+01	-2.42749E+00
-4.84625E+01	-4.59106E+00
-4.39928E+01	-5.42651E+00
-3.95264E+01	-2.39233E+00
-3.50632E+01	 9.92188E-01
-3.06031E+01	-1.32666E+00
-2.61463E+01	-4.47070E+00
-2.16927E+01	-7.76831E+00
-1.72423E+01	-1.20088E+01
-1.27951E+01	 7.84082E+00
-8.35111E+00	 3.67822E+01
-3.91029E+00	 7.03350E+01
 5.27351E-01	 9.74648E+01
 4.96181E+00	 1.06645E+02
 9.39308E+00	 8.89614E+01
 1.38212E+01	 4.95820E+01
 1.82461E+01	 4.91748E+00
 2.26679E+01	-3.44839E+01
 2.70865E+01	-4.73032E+01
 3.15019E+01	-5.92495E+01
 3.59141E+01	-9.77446E+01
 4.03233E+01	-5.26001E+01
 4.47292E+01	 6.03477E+01
 4.91320E+01	 1.67988E+01
 5.35317E+01	 2.83365E+02
 5.79282E+01	 1.06639E+03
 6.23216E+01	 1.88649E+03
 6.67118E+01	 2.65806E+03
 7.10989E+01	 3.35559E+03
 7.54829E+01	 3.91884E+03
 7.98637E+01	 4.33640E+03
 8.42415E+01	 4.55674E+03
 8.86161E+01	 4.55955E+03
 9.29876E+01	 4.36731E+03
 9.73559E+01	 4.10853E+03
 1.01721E+02	 3.87593E+03
 1.06083E+02	 3.65863E+03
 1.10442E+02	 3.45305E+03
 1.14798E+02	 3.24412E+03
 1.19151E+02	 3.05730E+03
 1.23501E+02	 2.90901E+03
 1.27848E+02	 2.76153E+03
 1.32191E+02	 2.60949E+03
 1.36532E+02	 2.45133E+03
 1.40869E+02	 2.27074E+03
 1.45203E+02	 2.07172E+03
 1.49535E+02	 1.87165E+03
 1.53863E+02	 1.70137E+03
 1.58188E+02	 1.51132E+03
 1.62510E+02	 1.35328E+03
 1.66829E+02	 1.28182E+03
 1.71145E+02	 1.22426E+03
 1.75458E+02	 1.13440E+03
 1.79768E+02	 1.00693E+03
 1.84074E+02	 8.89055E+02
 1.88378E+02	 8.09716E+02
 1.92679E+02	 7.71462E+02
 1.96976E+02	 7.85188E+02
 2.01271E+02	 7.94263E+02
 2.05562E+02	 7.53013E+02
 2.09851E+02	 6.91093E+02
 2.14136E+02	 6.49696E+02
 2.18419E+02	 6.50937E+02
 2.22698E+02	 6.99834E+02
 2.26975E+02	 7.60934E+02
 2.31248E+02	 8.46945E+02
 2.35519E+02	 9.04564E+02
 2.39786E+02	 9.35007E+02
 2.44050E+02	 9.65213E+02
 2.48312E+02	 1.00399E+03
 2.52570E+02	 1.04376E+03
 2.56825E+02	 1.05576E+03
 2.61078E+02	 1.02723E+03
 2.65327E+02	 9.96697E+02
 2.69574E+02	 9.20976E+02
 2.73817E+02	 8.71997E+02
 2.78057E+02	 8.53424E+02
 2.82295E+02	 8.16384E+02
 2.86529E+02	 7.45126E+02
 2.90761E+02	 6.51365E+02
 2.94989E+02	 5.49193E+02
 2.99215E+02	 4.46608E+02
 3.03438E+02	 3.68049E+02
 3.07657E+02	 3.35528E+02
 3.11874E+02	 3.11040E+02
 3.16088E+02	 2.95540E+02
 3.20298E+02	 2.77451E+02
 3.24506E+02	 2.32794E+02
 3.28711E+02	 1.64730E+02
 3.32913E+02	 1.16529E+02
 3.37112E+02	 1.01555E+02
 3.41308E+02	 1.03363E+02
 3.45501E+02	 1.13743E+02
 3.49691E+02	 1.09604E+02
 3.53879E+02	 8.65151E+01
 3.58063E+02	 5.30229E+01
 3.62244E+02	 3.13989E+01
 3.66423E+02	 3.75757E+01
 3.70598E+02	 4.47813E+01
 3.74771E+02	 6.38589E+01
 3.78941E+02	 8.32046E+01
 3.83108E+02	 8.35356E+01
 3.87272E+02	 6.18271E+01
 3.91433E+02	 4.27148E+01
 3.95591E+02	 3.90405E+01
 3.99746E+02	 4.86436E+01
 4.03898E+02	 5.36118E+01
 4.08048E+02	 4.95425E+01
 4.12194E+02	 3.12417E+01
 4.16338E+02	 6.26758E+00
 4.20479E+02	-5.69824E-01
 4.24617E+02	 2.77847E+01
 4.28752E+02	 5.46460E+01
 4.32884E+02	 6.06411E+01
 4.37013E+02	 3.38115E+01
 4.41140E+02	 2.51465E-01
 4.45263E+02	-3.04966E+01
 4.49384E+02	-4.95933E+01
 4.53502E+02	-4.46597E+01
 4.57617E+02	-2.17051E+01
 4.61729E+02	 1.73828E+00
 4.65838E+02	 2.60005E+01
 4.69945E+02	 3.38135E+01
 4.74048E+02	 2.80176E+01
 4.78149E+02	 1.67202E+01
 4.82247E+02	 3.73877E+00
 4.86342E+02	-2.70313E+00
 4.90434E+02	-4.11084E+00
 4.94524E+02	-1.61660E+01
 4.98610E+02	-2.12134E+01
 5.02694E+02	-1.44771E+01
 5.06775E+02	 4.02344E-01
 5.10853E+02	 6.13867E+00
 5.14929E+02	 4.28711E+00
 5.19001E+02	-1.73438E+00
 5.23071E+02	-1.18818E+01
 5.27138E+02	-2.06323E+01
 5.31202E+02	-1.71079E+01
 5.35263E+02	-2.09741E+01
 5.39322E+02	-1.40229E+01
 5.43377E+02	 1.30884E+01
 5.47430E+02	 3.58599E+01
 5.51480E+02	 3.31802E+01
 5.55528E+02	 1.45952E+01
 5.59572E+02	-7.25391E+00
 5.63614E+02	-2.24888E+01
 5.67653E+02	-3.15122E+01
 5.71689E+02	-6.35938E+00
 5.75723E+02	 1.76455E+01
 5.79753E+02	 9.56982E+00
 5.83781E+02	-1.16504E+01
 5.87806E+02	-3.21523E+01
 5.91829E+02	-4.55918E+01
 5.95848E+02	-4.29053E+01
 5.99865E+02	-1.36831E+01
 6.03879E+02	 1.97285E+01
 6.07891E+02	 2.12715E+01
 6.11899E+02	 1.41221E+01
 6.15905E+02	 2.12358E+01
 6.19908E+02	 3.88335E+01
 6.23908E+02	 4.96343E+01
 6.27906E+02	 5.62544E+01
 6.31901E+02	 5.07783E+01
 6.35893E+02	 3.08882E+01
 6.39882E+02	 1.25400E+01
 6.43869E+02	 1.71157E+01
 6.47853E+02	 2.60684E+01
 6.51834E+02	 2.77822E+01
 6.55813E+02	 2.23564E+01
 6.59789E+02	 2.49893E+01
 6.63762E+02	 1.73423E+01
 6.67732E+02	 1.77754E+01
 6.71700E+02	 2.28672E+01
 6.75665E+02	 3.23677E+01
 6.79627E+02	 4.56587E+01
 6.83587E+02	 5.45435E+01
 6.87544E+02	 4.87900E+01
 6.91498E+02	 3.60991E+01
 6.95449E+02	 1.97139E+01
 6.99398E+02	 1.76377E+01
 7.03344E+02	 7.77979E+00
 7.07288E+02	 1.08477E+01
 7.11228E+02	 8.74658E+00
 7.15166E+02	 3.57178E+00
 7.19102E+02	 7.11816E+00
 7.23034E+02	 1.62402E+01
 7.26965E+02	 1.24429E+01
 7.30892E+02	 1.98193E+00
 7.34817E+02	-1.24790E+01
 7.38739E+02	-9.38965E+00
 7.42658E+02	-8.27979E+00
 7.46575E+02	-7.12402E-01
 7.50489E+02	-1.27686E+00
 7.54400E+02	-1.25195E+01
 7.58309E+02	-2.75107E+01
 7.62215E+02	-2.41631E+01
 7.66119E+02	-1.85376E+01
 7.70019E+02	 9.37305E+00
 7.73918E+02	 3.57734E+01
 7.77813E+02	 4.67026E+01
 7.81706E+02	 3.73613E+01
 7.85596E+02	 1.54399E+01
 7.89484E+02	-3.61621E+00
 7.93369E+02	-2.27944E+01
 7.97251E+02	-2.95903E+01
 8.01131E+02	-1.21074E+01
 8.05008E+02	-3.09814E+00
 8.08883E+02	 1.22793E+01
 8.12755E+02	 3.69375E+01
 8.16624E+02	 3.81631E+01
 8.20491E+02	 3.05288E+01
 8.24355E+02	 3.07539E+01
 8.28217E+02	 5.39497E+01
 8.32075E+02	 7.07500E+01
 8.35932E+02	 7.88579E+01
 8.39785E+02	 8.93765E+01
 8.43637E+02	 7.66899E+01
 8.47485E+02	 4.13911E+01
 8.51331E+02	 2.23569E+01
 8.55174E+02	 1.46006E+01
 8.59015E+02	 9.42432E+00
 8.62853E+02	 6.54248E+00
 8.66689E+02	 2.14468E+01
 8.70522E+02	 2.83257E+01
 8.74352E+02	 6.87256E+00
 8.78180E+02	-1.68188E+01
 8.82006E+02	-4.20771E+01
 8.85828E+02	-4.40972E+01
 8.89648E+02	-1.91724E+01
 8.93466E+02	 1.23149E+01
 8.97281E+02	 2.43389E+01
 9.01094E+02	 2.00825E+01
 9.04904E+02	 1.33789E+01
 9.08711E+02	 3.61865E+00
 9.12516E+02	 1.32773E+01
 9.16318E+02	 2.95981E+01
 9.20118E+02	 2.24902E+01
 9.23915E+02	-4.37598E+00
 9.27710E+02	-2.63369E+01
 9.31502E+02	-2.09858E+01
 9.35292E+02	-9.68945E+00
 9.39079E+02	 1.11182E+01
 9.42863E+02	 3.16738E+01
 9.46645E+02	 2.07803E+01
 9.50425E+02	-1.62207E+00
 9.54202E+02	-2.58525E+01
 9.57976E+02	-2.61821E+01
 9.61748E+02	-1.28560E+01
 9.65517E+02	 1.31348E+00
 9.69284E+02	 9.58691E+00
 9.73049E+02	-8.51123E+00
 9.76811E+02	-2.28169E+01
 9.80570E+02	-1.97065E+01
 9.84327E+02	-7.32080E+00
 9.88081E+02	 1.82686E+01
 9.91833E+02	 4.67275E+01
 9.95583E+02	 6.85581E+01
 9.99329E+02	 7.41182E+01
 1.00307E+03	 6.78247E+01
 1.00682E+03	 4.98345E+01
 1.01056E+03	 1.40347E+01
 1.01429E+03	-1.72944E+01
 1.01803E+03	-1.43999E+01
 1.02176E+03	 5.32715E-01
 1.02549E+03	 1.72773E+01
 1.02922E+03	 2.65059E+01
 1.03294E+03	 1.30317E+01
 1.03666E+03	-1.76870E+01
 1.04038E+03	-2.89150E+01
 1.04410E+03	-1.75171E+01
 1.04781E+03	 1.22539E+01
 1.05153E+03	 3.32422E+01
 1.05524E+03	 4.05210E+01
 1.05894E+03	 2.65278E+01
 1.06265E+03	 2.43359E+00
 1.06635E+03	-1.29790E+01
 1.07005E+03	 9.13574E-01
 1.07375E+03	 9.61475E+00
 1.07744E+03	 2.97231E+01
 1.08114E+03	 4.69683E+01
 1.08483E+03	 4.27939E+01
 1.08851E+03	 1.34648E+01
 1.09220E+03	-1.23555E+01
 1.09588E+03	-1.64473E+01
 1.09956E+03	-3.81836E+00
 1.10324E+03	 5.40186E+00
 1.10692E+03	 2.25732E+01
 1.11059E+03	 1.08062E+01
 1.11426E+03	-6.94824E+00
 1.11793E+03	-1.59424E+01
 1.12159E+03	-1.54419E+01
 1.12526E+03	-7.98975E+00
 1.12892E+03	-7.51855E+00
 1.13258E+03	 2.56689E+00
 1.13623E+03	 4.08936E+00
 1.13989E+03	-2.55566E+00
 1.14354E+03	-2.59717E+00
 1.14719E+03	-5.53809E+00
 1.15084E+03	-5.70557E+00
 1.15448E+03	 2.61230E-01
 1.15812E+03	-2.60059E+00
 1.16176E+03	 2.03564E+00
 1.16540E+03	 3.70605E-01
 1.16903E+03	 1.38730E+01
 1.17267E+03	 2.49097E+01
 1.17630E+03	 2.75337E+01
 1.17992E+03	 2.18413E+01
 1.18355E+03	 1.00967E+01
 1.18717E+03	-2.29199E+00
 1.19079E+03	-3.60156E+00
 1.19441E+03	-1.13574E+00
 1.19803E+03	 2.32373E+00
 1.20164E+03	-9.42871E-01
 1.20525E+03	-6.14307E+00
 1.20886E+03	-1.43823E+01
 1.21246E+03	-2.24385E+01
 1.21607E+03	-1.97959E+01
 1.21967E+03	-7.75537E+00
 1.22327E+03	 7.11426E-01
 1.22687E+03	 6.29541E+00
 1.23046E+03	 5.28418E+00
 1.23405E+03	-5.60645E+00
 1.23764E+03	-1.64639E+01
 1.24123E+03	-1.54292E+01
 1.24482E+03	-3.65332E+00
 1.24840E+03	 1.72769E+01
 1.25198E+03	 3.12168E+01
 1.25556E+03	 3.46484E+01
 1.25913E+03	 2.43730E+01
 1.26271E+03	 7.03857E+00
 1.26628E+03	-3.84961E+00
 1.26985E+03	-7.27051E-01
 1.27341E+03	 1.51147E+01
 1.27698E+03	 1.70645E+01
 1.28054E+03	 5.41943E+00
 1.28410E+03	 7.14209E+00
 1.28766E+03	 1.99194E+01
 1.29121E+03	 1.93721E+01
 1.29476E+03	 1.85933E+01
 1.29831E+03	 1.54326E+01
 1.30186E+03	 1.02856E+01
 1.30541E+03	-1.58594E+00
 1.30895E+03	 1.23584E+01
 1.31249E+03	 2.29458E+01
 1.31603E+03	 2.17197E+01
 1.31957E+03	 1.56362E+01
 1.32310E+03	 1.60054E+01
 1.32663E+03	 1.14937E+01
 1.33016E+03	 5.74707E+00
 1.33369E+03	 1.77100E+00
 1.33722E+03	-2.69678E+00
 1.34074E+03	-1.67627E+01
 1.34426E+03	-1.78379E+01
 1.34778E+03	-2.17822E+00
 1.35129E+03	 2.33027E+01
 1.35481E+03	 5.42119E+01
 1.35832E+03	 6.37158E+01
 1.36183E+03	 5.17769E+01
 1.36534E+03	 2.85586E+01
 1.36884E+03	 1.74531E+01
 1.37234E+03	 8.79053E+00
 1.37584E+03	 1.53799E+01
 1.37934E+03	 2.71465E+01
 1.38284E+03	 3.39683E+01
 1.38633E+03	 2.99067E+01
 1.38982E+03	 1.26240E+01
 1.39331E+03	-1.12964E+01
 1.39680E+03	-1.71362E+01
 1.40028E+03	-1.13091E+01
 1.40376E+03	 3.55420E+00
 1.40724E+03	 1.30278E+01
 1.41072E+03	 1.31675E+01
 1.41420E+03	 5.29346E+00
 1.41767E+03	-8.58594E+00
 1.42114E+03	-6.81787E+00
 1.42461E+03	-6.05322E+00
 1.42808E+03	-8.88135E+00
 1.43154E+03	 2.11670E+00
 1.43500E+03	 1.99751E+01
 1.43846E+03	 3.15376E+01
 1.44192E+03	 3.00337E+01
 1.44537E+03	 1.36787E+01
 1.44883E+03	-3.82715E+00
 1.45228E+03	-1.74966E+01
 1.45573E+03	-8.39307E+00
 1.45917E+03	 5.84033E+00
 1.46262E+03	 6.98096E+00
 1.46606E+03	-3.75488E+00
 1.46950E+03	-1.35693E+01
 1.47294E+03	-1.81636E+01
 1.47637E+03	-2.02251E+01
 1.47981E+03	-2.32051E+01
 1.48324E+03	-8.36572E+00
 1.48667E+03	 1.20117E+01
 1.49009E+03	 3.50278E+01
 1.49352E+03	 4.92051E+01
 1.49694E+03	 5.24365E+01
 1.50036E+03	 3.65527E+01
 1.50378E+03	 1.71870E+01
 1.50720E+03	 6.97461E+00
 1.51061E+03	 7.03125E-02
 1.51402E+03	-1.19443E+01
 1.51743E+03	-1.51714E+01
 1.52084E+03	-1.13130E+01
 1.52424E+03	-1.04697E+01
 1.52764E+03	-8.48096E+00
 1.53105E+03	 3.47656E-01
 1.53444E+03	 6.48486E+00
 1.53784E+03	 1.96226E+01
 1.54123E+03	 3.41255E+01
 1.54463E+03	 4.20205E+01
 1.54802E+03	 3.79121E+01
 1.55140E+03	 2.43037E+01
 1.55479E+03	 2.10435E+01
 1.55817E+03	 2.35098E+01
 1.56155E+03	 3.05718E+01
 1.56493E+03	 3.37471E+01
 1.56831E+03	 3.06338E+01
 1.57168E+03	 2.85581E+01
 1.57506E+03	 2.32461E+01
 1.57843E+03	 3.00322E+01
 1.58180E+03	 4.24126E+01
 1.58516E+03	 4.29131E+01
 1.58853E+03	 3.86479E+01
 1.59189E+03	 3.39014E+01
 1.59525E+03	 3.01616E+01
 1.59861E+03	 2.61069E+01
 1.60196E+03	 2.01865E+01
 1.60531E+03	 1.29375E+01
 1.60867E+03	 5.87402E-01
 1.61202E+03	-2.39600E+00
 1.61536E+03	 7.30273E+00
 1.61871E+03	 9.94092E+00
 1.62205E+03	 8.01221E+00
 1.62539E+03	 3.22461E+00
 1.62873E+03	-7.52783E+00
 1.63207E+03	-9.78320E+00
 1.63540E+03	-6.00098E-01
 1.63873E+03	 5.35352E+00
 1.64206E+03	 7.97119E+00
 1.64539E+03	 3.77588E+00
 1.64872E+03	-9.67285E-01
 1.65204E+03	-4.43408E+00
 1.65536E+03	 3.40820E+00
 1.65868E+03	 9.88037E+00
 1.66200E+03	 8.89600E+00
 1.66532E+03	 3.71094E-02
 1.66863E+03	-3.79492E+00
 1.67194E+03	-3.62598E+00
 1.67525E+03	 4.94141E-01
 1.67856E+03	 7.13672E+00
 1.68186E+03	 1.87061E+00
 1.68516E+03	-2.72119E+00
 1.68847E+03	-5.68701E+00
 1.69176E+03	-5.89941E+00
 1.69506E+03	-5.65820E+00
 1.69836E+03	 5.14648E-01
 1.70165E+03	 7.51123E+00
 1.70494E+03	 9.87598E+00
 1.70823E+03	 1.04590E+01
 1.71151E+03	 5.16260E+00
 1.71480E+03	-4.85693E+00
 1.71808E+03	-3.83838E+00
 1.72136E+03	-4.56494E+00
 1.72464E+03	 1.20752E+00
 1.72792E+03	 5.46387E+00
 1.73119E+03	 4.09229E+00
 1.73446E+03	 5.21826E+00
 1.73773E+03	 1.48633E+00
 1.74100E+03	 1.83105E+00
 1.74427E+03	-2.31299E+00
 1.74753E+03	-1.00996E+01
 1.75079E+03	-7.51611E+00
 1.75405E+03	-5.27197E+00
 1.75731E+03	 1.44922E+00
 1.76057E+03	 1.26514E+01
 1.76382E+03	 2.11841E+01
 1.76707E+03	 2.48408E+01
 1.77032E+03	 1.64927E+01
 1.77357E+03	 7.46826E+00
 1.77681E+03	 3.44043E+00
 1.78006E+03	-1.06982E+00
 1.78330E+03	 4.89746E+00
 1.78654E+03	 3.22314E+00
 1.78978E+03	-4.00195E+00
 1.79301E+03	-7.60449E+00
 1.79625E+03	-7.75488E+00
 1.79948E+03	-4.81006E+00
 1.80271E+03	-8.10547E-02
 1.80593E+03	 6.70850E+00
 1.80916E+03	 1.35532E+01
 1.81238E+03	 1.23096E+01
 1.81560E+03	 1.40757E+01
 1.81882E+03	 1.05142E+01
 1.82204E+03	 9.16016E-01
 1.82526E+03	-1.61914E+00
 1.82847E+03	-1.72803E+00
 1.83168E+03	-3.10498E+00
 1.83489E+03	-2.88232E+00
 1.83810E+03	 1.81104E+00
 1.84130E+03	 8.11230E+00
 1.84451E+03	 1.04873E+01
 1.84771E+03	 8.58838E+00
 1.85091E+03	 5.37061E+00
 1.85411E+03	 2.69043E-01
 1.85730E+03	-7.78809E-01
 1.86049E+03	 6.22559E-01
 1.86369E+03	 9.62646E+00
 1.86688E+03	 1.53516E+01
 1.87006E+03	 1.38960E+01
 1.87325E+03	 1.02222E+01
 1.87643E+03	 3.61328E+00
 1.87961E+03	 1.22754E+00
 1.88279E+03	 6.51416E+00
 1.88597E+03	 1.27534E+01
 1.88915E+03	 1.13726E+01
 1.89232E+03	 3.21973E+00
 1.89549E+03	 1.35596E+00
 1.89866E+03	 2.07715E+00
 1.90183E+03	 3.95508E-01
 1.90500E+03	-9.90723E-01
 1.90816E+03	 7.51465E-01
 1.91132E+03	 2.83984E+00
 1.91448E+03	 4.97070E-01
 1.91764E+03	-3.09570E-01
 1.92080E+03	 2.33350E+00
 1.92395E+03	 6.89941E-01
 1.92710E+03	 3.06104E+00
 1.93025E+03	 7.93604E+00
 1.93340E+03	 1.02729E+01
 1.93655E+03	 7.75537E+00
 1.93969E+03	 7.23291E+00
 1.94284E+03	 7.69336E+00
 1.94598E+03	 4.91748E+00
 1.94912E+03	 1.84912E+00
 1.95225E+03	 3.45215E-01
 1.95539E+03	-5.01758E+00
 1.95852E+03	-7.54980E+00
 1.96165E+03	-4.01904E+00
 1.96478E+03	-3.09814E+00
 1.96791E+03	-7.80273E-01
 1.97103E+03	 5.14160E+00
 1.97416E+03	 7.73535E+00
 1.97728E+03	 5.29883E+00
 1.98040E+03	 4.58496E-01
 1.98352E+03	-2.06738E+00
 1.98663E+03	-1.85205E+00
 1.98975E+03	-2.61719E+00
 1.99286E+03	 6.93359E-01
 1.99597E+03	 1.00293E+00
 1.99908E+03	-1.66748E+00
 2.00218E+03	-5.38623E+00
 2.00529E+03	-2.43555E+00
 2.00839E+03	 5.16846E+00
 2.01149E+03	 1.20464E+01
 2.01459E+03	 1.03462E+01
 2.01769E+03	 2.45361E+00
 2.02078E+03	-1.95020E+00
 2.02387E+03	-1.49512E+00
 2.02696E+03	-1.91943E+00
 2.03005E+03	 3.96973E-01
 2.03314E+03	 2.51611E+00
 2.03623E+03	 1.89258E+00
 2.03931E+03	-9.77539E-01
 2.04239E+03	-4.03320E-01
 2.04547E+03	 3.66211E-02
 2.04855E+03	-4.80029E+00
 2.05163E+03	-2.00488E+00
 2.05470E+03	 3.07275E+00
 2.05777E+03	 4.68896E+00
 2.06084E+03	 2.06494E+00
 2.06391E+03	-4.23340E-01
 2.06698E+03	-3.90820E+00
 2.07004E+03	-6.13281E+00
 2.07310E+03	-3.33936E+00
 2.07617E+03	 3.48730E+00
 2.07923E+03	 8.22510E+00
 2.08228E+03	 1.06958E+01
 2.08534E+03	 6.67627E+00
 2.08839E+03	 2.12158E+00
 2.09144E+03	-2.31445E+00
 2.09449E+03	-4.69873E+00
 2.09754E+03	-4.59570E+00
 2.10059E+03	-2.16748E+00
 2.10363E+03	 3.11035E-01
 2.10667E+03	 4.38135E+00
 2.10972E+03	 1.10518E+01
 2.11275E+03	 1.35942E+01
 2.11579E+03	 1.08730E+01
 2.11883E+03	 9.58789E+00
 2.12186E+03	 3.71484E+00
 2.12489E+03	 3.96045E+00
 2.12792E+03	 7.95654E+00
 2.13095E+03	 1.18936E+01
 2.13397E+03	 1.11484E+01
 2.13700E+03	 7.95264E+00
 2.14002E+03	 4.48193E+00
 2.14304E+03	 9.05273E-01
 2.14606E+03	 2.11914E+00
 2.14908E+03	 7.31982E+00
 2.15209E+03	 6.42627E+00
 2.15511E+03	 1.46338E+00
 2.15812E+03	-8.12988E-01
 2.16113E+03	-2.01953E+00
 2.16413E+03	-1.31689E+00
 2.16714E+03	 3.57275E+00
 2.17014E+03	 3.53711E+00
 2.17315E+03	-2.05273E+00
 2.17615E+03	-4.70654E+00
 2.17915E+03	-4.67236E+00
 2.18214E+03	-1.09033E+00
 2.18514E+03	 2.92383E+00
 2.18813E+03	 7.72314E+00
 2.19112E+03	 5.53760E+00
 2.19411E+03	 4.44336E-01
 2.19710E+03	 1.08398E-01
 2.20009E+03	-2.51074E+00
 2.20307E+03	 1.07275E+00
 2.20605E+03	 6.95898E+00
 2.20903E+03	 1.28101E+01
 2.21201E+03	 7.84668E+00
 2.21499E+03	-1.37207E-01
 2.21796E+03	-3.21484E+00
 2.22094E+03	-5.73730E+00
 2.22391E+03	-4.14600E+00
 2.22688E+03	 3.34424E+00
 2.22985E+03	 5.73535E+00
 2.23281E+03	 7.09619E+00
 2.23578E+03	 4.82715E+00
 2.23874E+03	 3.10889E+00
 2.24170E+03	-2.66602E-01
 2.24466E+03	-2.91895E+00
 2.24762E+03	-1.91064E+00
 2.25058E+03	 2.70752E+00
 2.25353E+03	 6.99121E+00
 2.25648E+03	 7.55176E+00
 2.25943E+03	 2.77832E+00
 2.26238E+03	-2.09375E+00
 2.26533E+03	-3.63965E+00
 2.26827E+03	-2.07666E+00
 2.27122E+03	 8.13965E-01
 2.27416E+03	 2.82715E+00
 2.27710E+03	 1.49268E+00
 2.28004E+03	-8.60840E-01
 2.28297E+03	-6.04980E-01
 2.28591E+03	 1.35010E+00
 2.28884E+03	 2.22754E+00
 2.29177E+03	 4.96533E+00
 2.29470E+03	 3.42725E+00
 2.29763E+03	 1.25488E+00
 2.30055E+03	-2.81152E+00
 2.30348E+03	-3.17480E+00
 2.30640E+03	-7.28516E-01
 2.30932E+03	 7.76855E-01
 2.31224E+03	 1.93994E+00
 2.31516E+03	 2.27734E+00
 2.31807E+03	 2.28516E+00
 2.32099E+03	 3.72168E+00
 2.32390E+03	 5.13721E+00
 2.32681E+03	 5.61816E+00
 2.32972E+03	 5.30762E-01
 2.33262E+03	-3.14697E+00
 2.33553E+03	-4.31787E+00
 2.33843E+03	-1.67725E+00
 2.34133E+03	 6.95801E-01
 2.34423E+03	-2.63184E-01
 2.34713E+03	-1.13037E+00
 2.35003E+03	-1.43652E+00
 2.35292E+03	 2.30566E+00
 2.35581E+03	 4.71289E+00
 2.35871E+03	 5.14307E+00
 2.36160E+03	 2.54102E+00
 2.36448E+03	-2.08252E+00
 2.36737E+03	-4.92090E+00
 2.37025E+03	-5.13330E+00
 2.37314E+03	-2.18701E+00
 2.37602E+03	 3.64111E+00
 2.37890E+03	 5.18115E+00
 2.38177E+03	 7.06055E+00
 2.38465E+03	 4.96924E+00
 2.38752E+03	 8.77441E-01
 2.39040E+03	-1.33545E+00
 2.39327E+03	-2.72070E+00
 2.39614E+03	-4.27246E-01
 2.39900E+03	-6.34277E-01
 2.40187E+03	 2.56348E-01
 2.40473E+03	 4.19775E+00
 2.40760E+03	 4.35986E+00
 2.41046E+03	 3.67871E+00
 2.41332E+03	 1.71826E+00
 2.41617E+03	-1.97852E+00
 2.41903E+03	-3.52393E+00
 2.42188E+03	-3.42920E+00
 2.42473E+03	-1.35010E+00
 2.42758E+03	 4.13574E-01
 2.43043E+03	 1.18359E+00
 2.43328E+03	 8.64258E-01
 2.43613E+03	 2.59473E+00
 2.43897E+03	 2.81445E+00
 2.44181E+03	 2.17529E+00
 2.44465E+03	 1.97119E+00
 2.44749E+03	-6.11816E-01
 2.45033E+03	-1.19629E+00
 2.45316E+03	-3.98779E+00
 2.45600E+03	-2.43506E+00
 2.45883E+03	-6.07910E-01
 2.46166E+03	 4.84863E-01
 2.46449E+03	 2.43848E+00
 2.46732E+03	 3.51611E+00
 2.47014E+03	 1.75049E+00
 2.47296E+03	 1.51978E+00
 2.47579E+03	 1.75439E+00
 2.47861E+03	 6.51611E-01
 2.48143E+03	-2.67822E-01
 2.48424E+03	-1.69946E+00
 2.48706E+03	-1.36060E+00
 2.48987E+03	-3.51074E-01
 2.49268E+03	 5.41992E-01
 2.49549E+03	 3.03003E+00
 2.49830E+03	 3.23926E+00
 2.50111E+03	 6.47705E-01
 2.50392E+03	-2.19092E+00
 2.50672E+03	-4.92139E+00
 2.50952E+03	-2.64331E+00
 2.51232E+03	-1.97290E+00
 2.51512E+03	 1.94922E+00
 2.51792E+03	 6.83545E+00
 2.52072E+03	 8.83081E+00
 2.52351E+03	 5.79663E+00
 2.52630E+03	 1.38916E-01
 2.52909E+03	-3.47656E+00
 2.53188E+03	-4.72363E+00
 2.53467E+03	-2.37817E+00
 2.53746E+03	 2.38892E+00
 2.54024E+03	 3.73267E+00
 2.54302E+03	 2.58691E+00
 2.54580E+03	 9.13818E-01
 2.54858E+03	 1.68213E+00
 2.55136E+03	 2.56982E+00
 2.55414E+03	 1.11963E+00
 2.55691E+03	-6.11816E-01
 2.55968E+03	-8.38379E-01
 2.56246E+03	-5.56641E-02
 2.56523E+03	 1.11523E+00
 2.56799E+03	 1.88501E+00
 2.57076E+03	-1.44775E-01
 2.57353E+03	-1.73828E+00
 2.57629E+03	-1.94336E-01
 2.57905E+03	 2.25562E+00
 2.58181E+03	 2.24316E+00
 2.58457E+03	 2.01563E+00
 2.58733E+03	 1.29980E+00
 2.59008E+03	-1.90967E+00
 2.59283E+03	-4.11621E+00
 2.59559E+03	-2.20801E+00
 2.59834E+03	-1.77783E+00
 2.60109E+03	 1.43262E+00
 2.60383E+03	 3.61060E+00
 2.60658E+03	 4.07813E+00
 2.60932E+03	 1.92847E+00
 2.61207E+03	 1.46484E-03
 2.61481E+03	-1.45825E+00
 2.61755E+03	-2.85938E+00
 2.62028E+03	-1.31299E+00
 2.62302E+03	 1.21704E+00
 2.62575E+03	 5.94971E-01
 2.62849E+03	 1.69751E+00
 2.63122E+03	 1.14111E+00
 2.63395E+03	-1.85864E+00
 2.63668E+03	-1.38306E+00
 2.63940E+03	 2.69287E-01
 2.64213E+03	 2.65527E+00
 2.64485E+03	 1.13525E+00
 2.64757E+03	 1.19800E+00
 2.65029E+03	 1.60498E+00
 2.65301E+03	 8.21045E-01
 2.65573E+03	 1.42847E+00
 2.65845E+03	 2.71826E+00
 2.66116E+03	 5.57617E-01
 2.66387E+03	-2.17188E+00
 2.66658E+03	-3.05371E+00
 2.66929E+03	-2.49536E+00
 2.67200E+03	-5.27100E-01
 2.67471E+03	 2.48853E+00
 2.67741E+03	 3.05981E+00
 2.68012E+03	 1.28125E+00
 2.68282E+03	-3.42041E-01
 2.68552E+03	-2.14990E+00
 2.68822E+03	-1.28076E+00
 2.69091E+03	-1.00708E+00
 2.69361E+03	 7.58057E-01
 2.69630E+03	-7.57568E-01
 2.69899E+03	-3.78174E-01
 2.70168E+03	 1.09399E+00
 2.70437E+03	 6.60645E-01
 2.70706E+03	 5.41016E-01
 2.70975E+03	 2.14233E+00
 2.71243E+03	 3.39526E+00
 2.71511E+03	 4.36011E+00
 2.71780E+03	 5.32764E+00
 2.72048E+03	 3.91138E+00
 2.72315E+03	-2.56592E-01
 2.72583E+03	-3.29565E+00
 2.72851E+03	-1.56689E+00
 2.73118E+03	-9.33594E-01
 2.73385E+03	-2.52930E-01
 2.73652E+03	 6.85547E-01
 2.73919E+03	 4.97070E-01
 2.74186E+03	-1.50000E+00
 2.74453E+03	-6.86035E-01
 2.74719E+03	 1.24658E+00
 2.74985E+03	 3.16309E+00
 2.75251E+03	 1.91479E+00
 2.75517E+03	 3.26611E+00
 2.75783E+03	 3.58105E+00
 2.76049E+03	 1.34473E+00
 2.76315E+03	 1.23926E+00
 2.76580E+03	 3.22412E+00
 2.76845E+03	 3.20068E+00
 2.77110E+03	 2.70508E+00
 2.77375E+03	 7.09473E-01
 2.77640E+03	-8.98438E-01
 2.77905E+03	-2.39063E+00
 2.78169E+03	-2.20313E+00
 2.78433E+03	 5.70801E-01
 2.78698E+03	 3.03271E+00
 2.78962E+03	 2.84644E+00
 2.79226E+03	 1.60059E+00
 2.79489E+03	-1.47021E+00
 2.79753E+03	-1.39795E+00
 2.80016E+03	-1.86792E+00
 2.80280E+03	-4.30664E-01
 2.80543E+03	 2.19971E+00
 2.80806E+03	 2.37622E+00
 2.81068E+03	 6.68945E-02
 2.81331E+03	-1.47144E+00
 2.81594E+03	-4.55811E-01
 2.81856E+03	-7.95898E-01
 2.82118E+03	-1.24731E+00
 2.82380E+03	 1.54541E+00
 2.82642E+03	 1.25684E+00
 2.82904E+03	 4.45313E-01
 2.83166E+03	 7.84180E-01
 2.83427E+03	-2.54883E-01
 2.83689E+03	-1.27881E+00
 2.83950E+03	-2.69775E+00
 2.84211E+03	-4.46533E-01
 2.84472E+03	-1.00366E+00
 2.84732E+03	-5.41992E-02
 2.84993E+03	 1.60693E+00
 2.85253E+03	 2.20142E+00
 2.85514E+03	 3.37891E-01
 2.85774E+03	 3.63037E-01
 2.86034E+03	 6.26221E-01
 2.86294E+03	 1.73950E+00
 2.86553E+03	 5.59814E-01
 2.86813E+03	-6.31836E-01
 2.87072E+03	-3.70288E+00
 2.87332E+03	-3.01831E+00
 2.87591E+03	-1.39795E+00
 2.87850E+03	 1.48901E+00
 2.88109E+03	 2.65918E+00
 2.88367E+03	 1.48730E+00
 2.88626E+03	 3.70361E-01
 2.88884E+03	 6.36475E-01
 2.89142E+03	 1.29224E+00
 2.89401E+03	 1.32471E+00
 2.89659E+03	-1.06299E+00
 2.89916E+03	-1.39917E+00
 2.90174E+03	-1.37573E+00
 2.90432E+03	-8.54492E-01
 2.90689E+03	-1.09619E+00
 2.90946E+03	 1.57227E-01
 2.91203E+03	 1.80811E+00
 2.91460E+03	 1.40698E+00
 2.91717E+03	 5.23193E-01
 2.91974E+03	 1.24487E+00
 2.92230E+03	 6.96045E-01
 2.92486E+03	 7.32422E-02
 2.92743E+03	-1.70581E+00
 2.92999E+03	-9.06250E-01
 2.93255E+03	-3.29565E+00
 2.93510E+03	-2.75342E+00
 2.93766E+03	 3.62793E-01
 2.94021E+03	 2.46851E+00
 2.94277E+03	 3.15942E+00
 2.94532E+03	 2.05786E+00
 2.94787E+03	 9.20166E-01
 2.95042E+03	 1.27563E+00
 2.95297E+03	-5.40527E-01
 2.95551E+03	 7.79297E-01
 2.95806E+03	 8.32520E-01
 2.96060E+03	-5.88623E-01
 2.96314E+03	-2.33960E+00
 2.96568E+03	-2.13281E+00
 2.96822E+03	-8.21777E-01
 2.97076E+03	 1.63110E+00
 2.97330E+03	 2.29395E+00
 2.97583E+03	 3.28589E+00
 2.97837E+03	 5.43457E-01
 2.98090E+03	-7.37061E-01
 2.98343E+03	-6.32324E-01
 2.98596E+03	-1.26953E-01
 2.98849E+03	-4.53125E-01
 2.99101E+03	-3.00537E-01
 2.99354E+03	-1.15308E+00
 2.99606E+03	-7.49512E-01
 2.99858E+03	 4.59961E-01
 3.00110E+03	 2.00586E+00
 3.00362E+03	 8.61816E-01
 3.00614E+03	 1.22778E+00
 3.00866E+03	 2.70020E-01
 3.01117E+03	-3.20801E-01
 3.01369E+03	-4.31152E-01
 3.01620E+03	-1.03052E+00
 3.01871E+03	-1.51367E+00
 3.02122E+03	-2.42163E+00
 3.02373E+03	-2.16797E-01
 3.02623E+03	 1.87695E+00
 3.02874E+03	 2.53979E+00
 3.03124E+03	 2.20728E+00
 3.03374E+03	 6.64795E-01
 3.03625E+03	-9.22852E-02
 3.03875E+03	-1.18164E+00
 3.04124E+03	-1.44946E+00
 3.04374E+03	 4.88281E-03
 3.04624E+03	-8.07129E-01
 3.04873E+03	 1.19141E-01
 3.05122E+03	-1.14941E+00
 3.05371E+03	-1.05225E+00
 3.05620E+03	-7.94434E-01
 3.05869E+03	-1.68481E+00
 3.06118E+03	 1.45508E-01
 3.06367E+03	 1.88232E-01
 3.06615E+03	-1.01978E+00
 3.06863E+03	-6.51367E-01
 3.07111E+03	-1.04297E+00
 3.07359E+03	 1.45264E+00
 3.07607E+03	 2.68359E+00
 3.07855E+03	 2.35767E+00
 3.08103E+03	 3.16089E+00
 3.08350E+03	 1.23071E+00
 3.08598E+03	 6.22070E-01
 3.08845E+03	-9.81934E-01
 3.09092E+03	-1.12109E+00
 3.09339E+03	-5.51758E-02
 3.09586E+03	-9.18701E-01
 3.09832E+03	-1.12622E+00
 3.10079E+03	-1.25781E+00
