X-Axis	NPA w/ HMB-1 pos2 E30 (CRR) (SG) (Sub BG)
-3.97831E+02	 7.15059E+01
-3.93106E+02	 6.75176E+01
-3.88385E+02	 4.06182E+01
-3.83668E+02	 1.96660E+01
-3.78954E+02	-4.19336E+00
-3.74244E+02	 1.80518E+01
-3.69537E+02	 1.92598E+01
-3.64833E+02	-3.87891E+00
-3.60133E+02	-6.53516E+00
-3.55437E+02	-2.85186E+01
-3.50744E+02	-3.80967E+01
-3.46054E+02	-3.37051E+01
-3.41368E+02	-1.62598E+01
-3.36685E+02	 1.55703E+01
-3.32006E+02	 1.54160E+01
-3.27330E+02	 2.92871E+01
-3.22658E+02	 3.06797E+01
-3.17989E+02	 3.02598E+01
-3.13323E+02	 9.72461E+00
-3.08661E+02	-2.79727E+01
-3.04002E+02	-1.73711E+01
-2.99347E+02	-5.00293E+00
-2.94695E+02	-1.69795E+01
-2.90047E+02	 3.75000E-01
-2.85402E+02	 3.50879E+00
-2.80760E+02	 8.82715E+00
-2.76122E+02	-5.42383E+00
-2.71487E+02	 1.91855E+01
-2.66855E+02	-2.25391E+00
-2.62227E+02	-4.38125E+01
-2.57603E+02	-2.95449E+01
-2.52981E+02	-1.33975E+01
-2.48363E+02	 3.82520E+00
-2.43749E+02	 5.14189E+01
-2.39138E+02	 5.37568E+01
-2.34530E+02	 3.86230E+01
-2.29925E+02	 9.32324E+00
-2.25324E+02	-2.00723E+01
-2.20726E+02	-3.74219E+01
-2.16132E+02	-3.23936E+01
-2.11541E+02	-3.22979E+01
-2.06953E+02	-3.85566E+01
-2.02369E+02	-3.67490E+01
-1.97788E+02	 1.17676E+00
-1.93210E+02	 5.53818E+01
-1.88636E+02	 9.42432E+01
-1.84065E+02	 1.08312E+02
-1.79497E+02	 4.16006E+01
-1.74932E+02	-4.82949E+01
-1.70371E+02	-7.13896E+01
-1.65814E+02	-7.03438E+01
-1.61259E+02	-2.55781E+01
-1.56708E+02	-1.37500E+00
-1.52160E+02	 9.86328E-01
-1.47615E+02	 8.47363E+00
-1.43074E+02	 1.35791E+01
-1.38536E+02	 1.40186E+01
-1.34001E+02	 1.93926E+01
-1.29470E+02	 2.75469E+01
-1.24942E+02	-6.88574E+00
-1.20417E+02	-2.43965E+01
-1.15896E+02	 1.19863E+01
-1.11377E+02	 1.26846E+01
-1.06862E+02	-1.95820E+01
-1.02350E+02	-2.40674E+01
-9.78419E+01	-9.83691E+00
-9.33366E+01	 1.09365E+01
-8.88346E+01	-1.08398E+01
-8.43359E+01	 2.80645E+01
-7.98404E+01	 1.88281E+01
-7.53481E+01	-5.29434E+01
-7.08591E+01	-4.20254E+01
-6.63733E+01	-1.21992E+01
-6.18908E+01	 4.95020E+00
-5.74114E+01	-5.26465E+01
-5.29353E+01	-9.10996E+01
-4.84625E+01	-3.17246E+01
-4.39928E+01	 3.17764E+01
-3.95264E+01	 1.61436E+01
-3.50632E+01	 7.80996E+01
-3.06031E+01	 6.44238E+00
-2.61463E+01	-2.04980E+00
-2.16927E+01	-4.99355E+01
-1.72423E+01	 3.70545E+02
-1.27951E+01	 1.14767E+03
-8.35111E+00	 2.10661E+03
-3.91029E+00	 3.21803E+03
 5.27351E-01	 4.00168E+03
 4.96181E+00	 3.99064E+03
 9.39308E+00	 3.39375E+03
 1.38212E+01	 2.28711E+03
 1.82461E+01	 1.07382E+03
 2.26679E+01	 2.38682E+01
 2.70865E+01	-2.45014E+02
 3.15019E+01	-9.58887E+01
 3.59141E+01	 2.11201E+02
 4.03233E+01	 5.25391E+00
 4.47292E+01	 1.95313E-03
 4.91320E+01	 7.81250E-03
 5.35317E+01	 1.54938E+03
 5.79282E+01	 1.02903E+04
 6.23216E+01	 1.43628E+04
 6.67118E+01	 1.39584E+04
 7.10989E+01	 1.21978E+04
 7.54829E+01	 1.19370E+04
 7.98637E+01	 1.21979E+04
 8.42415E+01	 1.21029E+04
 8.86161E+01	 1.20161E+04
 9.29876E+01	 1.19361E+04
 9.73559E+01	 1.18618E+04
 1.01721E+02	 1.17925E+04
 1.06083E+02	 1.17276E+04
 1.10442E+02	 1.16666E+04
 1.14798E+02	 1.16092E+04
 1.19151E+02	 1.15550E+04
 1.23501E+02	 1.15037E+04
 1.27848E+02	 1.14552E+04
 1.32191E+02	 1.14092E+04
 1.36532E+02	 1.13656E+04
 1.40869E+02	 1.13242E+04
 1.45203E+02	 1.12849E+04
 1.49535E+02	 1.12476E+04
 1.53863E+02	 1.12122E+04
 1.58188E+02	 1.11786E+04
 1.62510E+02	 1.11467E+04
 1.66829E+02	 1.11165E+04
 1.71145E+02	 1.10878E+04
 1.75458E+02	 1.10607E+04
 1.79768E+02	 1.10351E+04
 1.84074E+02	 1.10110E+04
 1.88378E+02	 1.09882E+04
 1.92679E+02	 1.09668E+04
 1.96976E+02	 1.09467E+04
 2.01271E+02	 1.09279E+04
 2.05562E+02	 1.09104E+04
 2.09851E+02	 1.08941E+04
 2.14136E+02	 1.08790E+04
 2.18419E+02	 1.08651E+04
 2.22698E+02	 1.08524E+04
 2.26975E+02	 1.08409E+04
 2.31248E+02	 1.08305E+04
 2.35519E+02	 1.08212E+04
 2.39786E+02	 1.08130E+04
 2.44050E+02	 1.08060E+04
 2.48312E+02	 1.08000E+04
 2.52570E+02	 1.07952E+04
 2.56825E+02	 1.07914E+04
 2.61078E+02	 1.07887E+04
 2.65327E+02	 1.07871E+04
 2.69574E+02	 1.07866E+04
 2.73817E+02	 1.07871E+04
 2.78057E+02	 1.07887E+04
 2.82295E+02	 1.07343E+04
 2.86529E+02	 1.08516E+04
 2.90761E+02	 1.09675E+04
 2.94989E+02	 1.07649E+04
 2.99215E+02	 1.03138E+04
 3.03438E+02	 9.75114E+03
 3.07657E+02	 9.09199E+03
 3.11874E+02	 8.69541E+03
 3.16088E+02	 8.47968E+03
 3.20298E+02	 8.10329E+03
 3.24506E+02	 7.20992E+03
 3.28711E+02	 5.87346E+03
 3.32913E+02	 4.62163E+03
 3.37112E+02	 3.63069E+03
 3.41308E+02	 3.08252E+03
 3.45501E+02	 2.88181E+03
 3.49691E+02	 2.59680E+03
 3.53879E+02	 2.10461E+03
 3.58063E+02	 1.54663E+03
 3.62244E+02	 1.11770E+03
 3.66423E+02	 1.23346E+03
 3.70598E+02	 1.63462E+03
 3.74771E+02	 2.33861E+03
 3.78941E+02	 3.02681E+03
 3.83108E+02	 3.21716E+03
 3.87272E+02	 2.96700E+03
 3.91433E+02	 2.97934E+03
 3.95591E+02	 3.26554E+03
 3.99746E+02	 3.61562E+03
 4.03898E+02	 3.60569E+03
 4.08048E+02	 3.17001E+03
 4.12194E+02	 2.53988E+03
 4.16338E+02	 2.06868E+03
 4.20479E+02	 1.96873E+03
 4.24617E+02	 2.41922E+03
 4.28752E+02	 2.54052E+03
 4.32884E+02	 2.24505E+03
 4.37013E+02	 1.45054E+03
 4.41140E+02	 6.24938E+02
 4.45263E+02	-3.31875E+01
 4.49384E+02	-5.57660E+02
 4.53502E+02	-6.33094E+02
 4.57617E+02	-8.19336E+01
 4.61729E+02	 6.39895E+02
 4.65838E+02	 1.42776E+03
 4.69945E+02	 1.40234E+03
 4.74048E+02	 9.52965E+02
 4.78149E+02	 3.52738E+02
 4.82247E+02	-7.76563E+01
 4.86342E+02	-2.74621E+02
 4.90434E+02	-2.27988E+02
 4.94524E+02	-2.52633E+02
 4.98610E+02	-3.83102E+02
 5.02694E+02	-1.96219E+02
 5.06775E+02	 2.44266E+02
 5.10853E+02	 3.85152E+02
 5.14929E+02	 3.41043E+02
 5.19001E+02	 1.99902E+02
 5.23071E+02	 9.17500E+01
 5.27138E+02	-2.47883E+02
 5.31202E+02	-3.72723E+02
 5.35263E+02	-5.16328E+02
 5.39322E+02	-2.02984E+02
 5.43377E+02	 6.44789E+02
 5.47430E+02	 1.54505E+03
 5.51480E+02	 1.59095E+03
 5.55528E+02	 8.27938E+02
 5.59572E+02	-1.00504E+02
 5.63614E+02	-7.53730E+02
 5.67653E+02	-9.94918E+02
 5.71689E+02	-3.92457E+02
 5.75723E+02	 8.18789E+01
 5.79753E+02	 1.15234E+01
 5.83781E+02	-5.46988E+02
 5.87806E+02	-7.56047E+02
 5.91829E+02	-6.46367E+02
 5.95848E+02	-1.83105E+02
 5.99865E+02	 8.68934E+02
 6.03879E+02	 1.70704E+03
 6.07891E+02	 1.65164E+03
 6.11899E+02	 1.11222E+03
 6.15905E+02	 7.64410E+02
 6.19908E+02	 5.92707E+02
 6.23908E+02	 5.74770E+02
 6.27906E+02	 8.77332E+02
 6.31901E+02	 1.09820E+03
 6.35893E+02	 1.05699E+03
 6.39882E+02	 6.24789E+02
 6.43869E+02	 5.51609E+02
 6.47853E+02	 7.78715E+02
 6.51834E+02	 1.05349E+03
 6.55813E+02	 1.56681E+03
 6.59789E+02	 2.10482E+03
 6.63762E+02	 2.43458E+03
 6.67732E+02	 2.36966E+03
 6.71700E+02	 2.00141E+03
 6.75665E+02	 1.97647E+03
 6.79627E+02	 2.01750E+03
 6.83587E+02	 2.17277E+03
 6.87544E+02	 2.08299E+03
 6.91498E+02	 1.60242E+03
 6.95449E+02	 1.10189E+03
 6.99398E+02	 5.14305E+02
 7.03344E+02	 8.08242E+01
 7.07288E+02	 2.57891E+01
 7.11228E+02	 1.35848E+02
 7.15166E+02	 3.35441E+02
 7.19102E+02	 4.77969E+02
 7.23034E+02	 5.90938E+02
 7.26965E+02	 2.12461E+02
 7.30892E+02	-4.96664E+02
 7.34817E+02	-9.76430E+02
 7.38739E+02	-8.51863E+02
 7.42658E+02	-4.88629E+02
 7.46575E+02	-1.00313E+01
 7.50489E+02	 2.18895E+02
 7.54400E+02	 1.32539E+01
 7.58309E+02	-4.38453E+02
 7.62215E+02	-6.16348E+02
 7.66119E+02	-4.72930E+02
 7.70019E+02	 1.48086E+02
 7.73918E+02	 7.56555E+02
 7.77813E+02	 1.21171E+03
 7.81706E+02	 1.13100E+03
 7.85596E+02	 8.08359E+02
 7.89484E+02	 4.14551E+02
 7.93369E+02	 1.00371E+02
 7.97251E+02	 3.89688E+01
 8.01131E+02	 3.83281E+02
 8.05008E+02	 6.88691E+02
 8.08883E+02	 1.15077E+03
 8.12755E+02	 1.73780E+03
 8.16624E+02	 1.85593E+03
 8.20491E+02	 1.70592E+03
 8.24355E+02	 1.90942E+03
 8.28217E+02	 2.34102E+03
 8.32075E+02	 2.61743E+03
 8.35932E+02	 2.57134E+03
 8.39785E+02	 2.82856E+03
 8.43637E+02	 2.65404E+03
 8.47485E+02	 1.96298E+03
 8.51331E+02	 1.38300E+03
 8.55174E+02	 9.49855E+02
 8.59015E+02	 5.31914E+02
 8.62853E+02	 2.27082E+02
 8.66689E+02	 3.26109E+02
 8.70522E+02	 2.62945E+02
 8.74352E+02	-4.24313E+02
 8.78180E+02	-9.44355E+02
 8.82006E+02	-1.18449E+03
 8.85828E+02	-6.75723E+02
 8.89648E+02	 1.20977E+02
 8.93466E+02	 6.89641E+02
 8.97281E+02	 7.28613E+02
 9.01094E+02	 3.49934E+02
 9.04904E+02	 7.96758E+01
 9.08711E+02	-1.63281E+00
 9.12516E+02	 3.74262E+02
 9.16318E+02	 7.36688E+02
 9.20118E+02	 2.70488E+02
 9.23915E+02	-4.78121E+02
 9.27710E+02	-8.85879E+02
 9.31502E+02	-9.15605E+02
 9.35292E+02	-5.65473E+02
 9.39079E+02	 1.89723E+02
 9.42863E+02	 8.17238E+02
 9.46645E+02	 5.97863E+02
 9.50425E+02	-6.13398E+01
 9.54202E+02	-5.93035E+02
 9.57976E+02	-3.93934E+02
 9.61748E+02	 1.52395E+02
 9.65517E+02	 1.03002E+03
 9.69284E+02	 1.29808E+03
 9.73049E+02	 6.68934E+02
 9.76811E+02	 9.60469E+01
 9.80570E+02	-4.38047E+01
 9.84327E+02	 2.30086E+02
 9.88081E+02	 8.63324E+02
 9.91833E+02	 1.32870E+03
 9.95583E+02	 1.62924E+03
 9.99329E+02	 1.65977E+03
 1.00307E+03	 1.78589E+03
 1.00682E+03	 1.53598E+03
 1.01056E+03	 8.10852E+02
 1.01429E+03	 1.95301E+02
 1.01803E+03	 2.10711E+02
 1.02176E+03	 3.97086E+02
 1.02549E+03	 5.91137E+02
 1.02922E+03	 5.50070E+02
 1.03294E+03	-8.93750E+00
 1.03666E+03	-6.72387E+02
 1.04038E+03	-7.23711E+02
 1.04410E+03	-2.16195E+02
 1.04781E+03	 6.16547E+02
 1.05153E+03	 8.73988E+02
 1.05524E+03	 7.06172E+02
 1.05894E+03	 1.01832E+02
 1.06265E+03	-2.73039E+02
 1.06635E+03	-6.31117E+02
 1.07005E+03	-3.34379E+02
 1.07375E+03	 4.41133E+01
 1.07744E+03	 5.25340E+02
 1.08114E+03	 8.83195E+02
 1.08483E+03	 5.91910E+02
 1.08851E+03	-2.26250E+02
 1.09220E+03	-7.15508E+02
 1.09588E+03	-7.27766E+02
 1.09956E+03	-2.96887E+02
 1.10324E+03	 1.31605E+02
 1.10692E+03	 6.95102E+02
 1.11059E+03	 4.37027E+02
 1.11426E+03	-1.82852E+02
 1.11793E+03	-3.61574E+02
 1.12159E+03	-3.93516E+02
 1.12526E+03	-4.52770E+02
 1.12892E+03	-3.95789E+02
 1.13258E+03	 2.11680E+01
 1.13623E+03	 2.58688E+02
 1.13989E+03	 1.47203E+02
 1.14354E+03	 3.10410E+02
 1.14719E+03	 3.96109E+02
 1.15084E+03	 4.24980E+02
 1.15448E+03	 5.77785E+02
 1.15812E+03	 5.87496E+02
 1.16176E+03	 4.33512E+02
 1.16540E+03	 1.64445E+02
 1.16903E+03	 2.78867E+02
 1.17267E+03	 5.64461E+02
 1.17630E+03	 8.64496E+02
 1.17992E+03	 8.54063E+02
 1.18355E+03	 5.26914E+02
 1.18717E+03	 1.88633E+01
 1.19079E+03	-2.80105E+02
 1.19441E+03	-3.77020E+02
 1.19803E+03	-2.52980E+02
 1.20164E+03	-2.34793E+02
 1.20525E+03	-2.31949E+02
 1.20886E+03	-2.94758E+02
 1.21246E+03	-2.60844E+02
 1.21607E+03	-1.49285E+02
 1.21967E+03	 2.08949E+02
 1.22327E+03	 4.38344E+02
 1.22687E+03	 4.75230E+02
 1.23046E+03	 4.01652E+02
 1.23405E+03	 3.13840E+02
 1.23764E+03	 3.08047E+01
 1.24123E+03	-1.11797E+01
 1.24482E+03	 3.12695E+02
 1.24840E+03	 7.18191E+02
 1.25198E+03	 7.49258E+02
 1.25556E+03	 5.86520E+02
 1.25913E+03	 3.84207E+02
 1.26271E+03	 3.27109E+01
 1.26628E+03	-1.46797E+01
 1.26985E+03	 2.84137E+02
 1.27341E+03	 5.43719E+02
 1.27698E+03	 4.86797E+02
 1.28054E+03	 1.43594E+02
 1.28410E+03	 1.07184E+02
 1.28766E+03	 1.24863E+02
 1.29121E+03	-8.27305E+01
 1.29476E+03	-1.29242E+02
 1.29831E+03	-1.09254E+02
 1.30186E+03	-1.80059E+02
 1.30541E+03	-2.82520E+02
 1.30895E+03	-9.20469E+01
 1.31249E+03	 1.05941E+02
 1.31603E+03	 8.15313E+01
 1.31957E+03	 1.70969E+02
 1.32310E+03	 3.29945E+02
 1.32663E+03	 3.02113E+02
 1.33016E+03	 9.10469E+01
 1.33369E+03	-8.05977E+01
 1.33722E+03	-3.97590E+02
 1.34074E+03	-6.78773E+02
 1.34426E+03	-4.07930E+02
 1.34778E+03	 1.91926E+02
 1.35129E+03	 8.91520E+02
 1.35481E+03	 1.34607E+03
 1.35832E+03	 1.32109E+03
 1.36183E+03	 1.10680E+03
 1.36534E+03	 8.78445E+02
 1.36884E+03	 8.30488E+02
 1.37234E+03	 5.20211E+02
 1.37584E+03	 3.66508E+02
 1.37934E+03	 2.46172E+02
 1.38284E+03	 2.06199E+02
 1.38633E+03	 2.96277E+02
 1.38982E+03	 1.24371E+02
 1.39331E+03	-2.20555E+02
 1.39680E+03	-3.26004E+02
 1.40028E+03	-3.89578E+02
 1.40376E+03	-2.58559E+02
 1.40724E+03	-1.20383E+02
 1.41072E+03	-9.99609E+00
 1.41420E+03	 1.63867E+01
 1.41767E+03	-5.16641E+01
 1.42114E+03	 5.31758E+01
 1.42461E+03	-2.96250E+01
 1.42808E+03	-2.30949E+02
 1.43154E+03	 5.54688E-01
 1.43500E+03	 4.83246E+02
 1.43846E+03	 7.97922E+02
 1.44192E+03	 7.83129E+02
 1.44537E+03	 3.52813E+02
 1.44883E+03	-2.30508E+01
 1.45228E+03	-7.31211E+01
 1.45573E+03	 2.91215E+02
 1.45917E+03	 8.10086E+02
 1.46262E+03	 9.46625E+02
 1.46606E+03	 4.65090E+02
 1.46950E+03	-2.20547E+01
 1.47294E+03	-3.33641E+02
 1.47637E+03	-4.99355E+02
 1.47981E+03	-6.37609E+02
 1.48324E+03	-5.56543E+02
 1.48667E+03	 3.24883E+01
 1.49009E+03	 6.06684E+02
 1.49352E+03	 1.13616E+03
 1.49694E+03	 1.41080E+03
 1.50036E+03	 1.31006E+03
 1.50378E+03	 1.15102E+03
 1.50720E+03	 1.09189E+03
 1.51061E+03	 9.76922E+02
 1.51402E+03	 5.36004E+02
 1.51743E+03	 3.30367E+02
 1.52084E+03	 4.23527E+02
 1.52424E+03	 4.17633E+02
 1.52764E+03	 5.61918E+02
 1.53105E+03	 7.45344E+02
 1.53444E+03	 1.00314E+03
 1.53784E+03	 1.49043E+03
 1.54123E+03	 2.12879E+03
 1.54463E+03	 2.69979E+03
 1.54802E+03	 2.98502E+03
 1.55140E+03	 3.03385E+03
 1.55479E+03	 2.97887E+03
 1.55817E+03	 2.65183E+03
 1.56155E+03	 2.17670E+03
 1.56493E+03	 1.40072E+03
 1.56831E+03	 6.75746E+02
 1.57168E+03	 3.50656E+02
 1.57506E+03	 2.46727E+02
 1.57843E+03	 3.33988E+02
 1.58180E+03	 6.64203E+02
 1.58516E+03	 9.55867E+02
 1.58853E+03	 1.30431E+03
 1.59189E+03	 1.48570E+03
 1.59525E+03	 1.56822E+03
 1.59861E+03	 1.36621E+03
 1.60196E+03	 9.92234E+02
 1.60531E+03	 5.22117E+02
 1.60867E+03	 1.82695E+01
 1.61202E+03	-1.06410E+02
 1.61536E+03	 3.85586E+01
 1.61871E+03	 1.44574E+02
 1.62205E+03	 1.13578E+02
 1.62539E+03	 6.73320E+01
 1.62873E+03	 1.19574E+02
 1.63207E+03	 1.39605E+02
 1.63540E+03	 2.05199E+02
 1.63873E+03	 2.61121E+02
 1.64206E+03	 1.62805E+02
 1.64539E+03	-5.45820E+01
 1.64872E+03	-3.04719E+02
 1.65204E+03	-1.62203E+02
 1.65536E+03	 5.97305E+01
 1.65868E+03	 1.26971E+02
 1.66200E+03	 8.89766E+01
 1.66532E+03	-9.89570E+01
 1.66863E+03	-3.27387E+02
 1.67194E+03	-3.41816E+02
 1.67525E+03	-5.25215E+01
 1.67856E+03	 2.66705E+02
 1.68186E+03	 2.78785E+02
 1.68516E+03	 1.85652E+02
 1.68847E+03	-1.49705E+02
 1.69176E+03	-3.69346E+02
 1.69506E+03	-3.55475E+02
 1.69836E+03	-2.19453E+01
 1.70165E+03	 1.93264E+02
 1.70494E+03	 2.12744E+02
 1.70823E+03	 9.56699E+01
 1.71151E+03	-6.41934E+01
 1.71480E+03	-2.31264E+02
 1.71808E+03	-7.65996E+01
 1.72136E+03	-2.88672E+00
 1.72464E+03	 1.02162E+02
 1.72792E+03	 6.13477E+01
 1.73119E+03	 6.67441E+01
 1.73446E+03	 1.69162E+02
 1.73773E+03	 2.78629E+02
 1.74100E+03	 1.29385E+02
 1.74427E+03	-3.23242E+00
 1.74753E+03	-2.33414E+02
 1.75079E+03	-2.47246E+02
 1.75405E+03	-2.69234E+02
 1.75731E+03	 1.94023E+01
 1.76057E+03	 2.87145E+02
 1.76382E+03	 6.19414E+02
 1.76707E+03	 7.50498E+02
 1.77032E+03	 4.89303E+02
 1.77357E+03	 7.09531E+01
 1.77681E+03	-1.67916E+02
 1.78006E+03	-1.72658E+02
 1.78330E+03	 6.80723E+01
 1.78654E+03	 8.33203E+00
 1.78978E+03	-1.88301E+01
 1.79301E+03	-1.44133E+02
 1.79625E+03	-1.48125E+02
 1.79948E+03	 4.96777E+01
 1.80271E+03	 1.39863E+02
 1.80593E+03	 1.40523E+02
 1.80916E+03	 9.04551E+01
 1.81238E+03	 5.18359E+00
 1.81560E+03	 9.82773E+01
 1.81882E+03	 1.06977E+02
 1.82204E+03	 4.84121E+01
 1.82526E+03	-2.74805E+01
 1.82847E+03	-1.75344E+02
 1.83168E+03	-1.77582E+02
 1.83489E+03	-8.78359E+01
 1.83810E+03	 2.55840E+01
 1.84130E+03	 1.99988E+02
 1.84451E+03	 2.52523E+02
 1.84771E+03	 2.08197E+02
 1.85091E+03	 7.39766E+01
 1.85411E+03	-1.11959E+02
 1.85730E+03	-1.48354E+02
 1.86049E+03	-4.50391E+01
 1.86369E+03	 2.37332E+02
 1.86688E+03	 3.94357E+02
 1.87006E+03	 3.02559E+02
 1.87325E+03	 2.03580E+02
 1.87643E+03	-1.26602E+01
 1.87961E+03	-6.28086E+01
 1.88279E+03	 1.27695E+01
 1.88597E+03	 1.03637E+02
 1.88915E+03	 2.22266E+00
 1.89232E+03	-1.66877E+02
 1.89549E+03	-4.01016E+01
 1.89866E+03	 9.37891E+01
 1.90183E+03	 7.72246E+01
 1.90500E+03	 3.50176E+01
 1.90816E+03	 6.69102E+01
 1.91132E+03	 1.50311E+02
 1.91448E+03	-9.15039E+00
 1.91764E+03	-1.33061E+02
 1.92080E+03	-1.46789E+02
 1.92395E+03	-1.73607E+02
 1.92710E+03	-7.45684E+01
 1.93025E+03	 1.13078E+02
 1.93340E+03	 2.59201E+02
 1.93655E+03	 3.02465E+02
 1.93969E+03	 3.55242E+02
 1.94284E+03	 4.25426E+02
 1.94598E+03	 2.94072E+02
 1.94912E+03	 1.02582E+02
 1.95225E+03	-1.23438E+01
 1.95539E+03	-1.01920E+02
 1.95852E+03	-1.66426E+02
 1.96165E+03	-8.06055E+01
 1.96478E+03	 4.72969E+01
 1.96791E+03	 2.05746E+02
 1.97103E+03	 3.39359E+02
 1.97416E+03	 4.33213E+02
 1.97728E+03	 2.97762E+02
 1.98040E+03	 6.98164E+01
 1.98352E+03	-9.82344E+01
 1.98663E+03	-8.27461E+01
 1.98975E+03	 3.47363E+01
 1.99286E+03	 2.24844E+01
 1.99597E+03	 1.64883E+01
 1.99908E+03	 1.14707E+01
 2.00218E+03	-3.76113E+01
 2.00529E+03	-1.63613E+01
 2.00839E+03	 9.57090E+01
 2.01149E+03	 2.49684E+02
 2.01459E+03	 1.63563E+02
 2.01769E+03	 1.26445E+01
 2.02078E+03	 1.03852E+02
 2.02387E+03	 1.01063E+02
 2.02696E+03	-9.25977E+00
 2.03005E+03	-1.26799E+02
 2.03314E+03	-1.65979E+02
 2.03623E+03	-1.43572E+02
 2.03931E+03	-6.59004E+01
 2.04239E+03	 1.42063E+02
 2.04547E+03	 1.74313E+02
 2.04855E+03	-2.69238E+01
 2.05163E+03	-5.39551E+01
 2.05470E+03	 2.11270E+01
 2.05777E+03	 6.46973E+01
 2.06084E+03	 9.50703E+01
 2.06391E+03	 4.44238E+01
 2.06698E+03	-1.17414E+02
 2.07004E+03	-2.45115E+02
 2.07310E+03	-1.46125E+02
 2.07617E+03	 1.21361E+02
 2.07923E+03	 3.71543E+02
 2.08228E+03	 4.27582E+02
 2.08534E+03	 2.88924E+02
 2.08839E+03	 1.29395E+01
 2.09144E+03	-1.64238E+02
 2.09449E+03	-1.56939E+02
 2.09754E+03	-2.34688E+01
 2.10059E+03	 8.58066E+01
 2.10363E+03	 1.21541E+02
 2.10667E+03	 8.26543E+01
 2.10972E+03	 1.33809E+02
 2.11275E+03	 1.40986E+02
 2.11579E+03	 1.72746E+02
 2.11883E+03	 1.68488E+02
 2.12186E+03	 8.16230E+01
 2.12489E+03	 2.25332E+01
 2.12792E+03	 8.66836E+01
 2.13095E+03	 1.23951E+02
 2.13397E+03	 1.16816E+02
 2.13700E+03	-8.26172E-01
 2.14002E+03	-1.52869E+02
 2.14304E+03	-2.05551E+02
 2.14606E+03	-2.03496E+01
 2.14908E+03	 2.45830E+02
 2.15209E+03	 3.32186E+02
 2.15511E+03	 2.64164E+02
 2.15812E+03	 1.32996E+02
 2.16113E+03	-3.30508E+01
 2.16413E+03	-3.41348E+01
 2.16714E+03	 1.24594E+02
 2.17014E+03	 9.77266E+01
 2.17315E+03	-2.73359E+01
 2.17615E+03	-1.24754E+02
 2.17915E+03	-1.13291E+02
 2.18214E+03	-7.81172E+01
 2.18514E+03	 6.72598E+01
 2.18813E+03	 2.71025E+02
 2.19112E+03	 2.27262E+02
 2.19411E+03	 5.65254E+01
 2.19710E+03	-4.37051E+01
 2.20009E+03	-9.29219E+01
 2.20307E+03	-1.14805E+01
 2.20605E+03	 1.71770E+02
 2.20903E+03	 3.45088E+02
 2.21201E+03	 2.52121E+02
 2.21499E+03	 1.08418E+01
 2.21796E+03	-1.43379E+02
 2.22094E+03	-1.57828E+02
 2.22391E+03	-4.85898E+01
 2.22688E+03	 1.00064E+02
 2.22985E+03	 2.05039E+02
 2.23281E+03	 1.77760E+02
 2.23578E+03	 7.88613E+01
 2.23874E+03	 1.66684E+02
 2.24170E+03	 4.35225E+02
 2.24466E+03	 6.93699E+02
 2.24762E+03	 7.09926E+02
 2.25058E+03	 6.26668E+02
 2.25353E+03	 4.83297E+02
 2.25648E+03	 2.13436E+02
 2.25943E+03	 6.52090E+01
 2.26238E+03	 7.05078E+00
 2.26533E+03	-5.94277E+01
 2.26827E+03	-4.41738E+01
 2.27122E+03	 2.73203E+01
 2.27416E+03	 5.37754E+01
 2.27710E+03	 5.58496E+01
 2.28004E+03	 5.66406E+00
 2.28297E+03	 3.85391E+01
 2.28591E+03	 3.09434E+01
 2.28884E+03	 4.03965E+01
 2.29177E+03	 9.68867E+01
 2.29470E+03	 6.07480E+01
 2.29763E+03	-2.55156E+01
 2.30055E+03	-1.42109E+01
 2.30348E+03	-2.86758E+01
 2.30640E+03	-2.28203E+01
 2.30932E+03	-3.79063E+01
 2.31224E+03	-2.87852E+01
 2.31516E+03	 5.49023E+00
 2.31807E+03	-1.84932E+01
 2.32099E+03	 1.74746E+01
 2.32390E+03	 9.14043E+01
 2.32681E+03	 1.75244E+01
 2.32972E+03	-4.33975E+01
 2.33262E+03	-8.46201E+01
 2.33553E+03	-5.93311E+01
 2.33843E+03	 2.29355E+01
 2.34133E+03	 4.80918E+01
 2.34423E+03	 4.79561E+01
 2.34713E+03	 5.27461E+01
 2.35003E+03	 7.41777E+01
 2.35292E+03	 1.51955E+02
 2.35581E+03	 1.62354E+02
 2.35871E+03	 1.53405E+02
 2.36160E+03	 4.62754E+01
 2.36448E+03	-7.76338E+01
 2.36737E+03	-1.15907E+02
 2.37025E+03	-1.02475E+02
 2.37314E+03	-6.72842E+01
 2.37602E+03	 1.13037E+02
 2.37890E+03	 1.95825E+02
 2.38177E+03	 2.13290E+02
 2.38465E+03	 9.04092E+01
 2.38752E+03	-3.69160E+01
 2.39040E+03	-7.21865E+01
 2.39327E+03	-8.38584E+01
 2.39614E+03	-1.68301E+01
 2.39900E+03	 1.08965E+01
 2.40187E+03	 5.28008E+01
 2.40473E+03	 1.54088E+02
 2.40760E+03	 2.01810E+02
 2.41046E+03	 2.01427E+02
 2.41332E+03	 1.46734E+02
 2.41617E+03	 3.10391E+01
 2.41903E+03	-7.32598E+01
 2.42188E+03	-6.49951E+01
 2.42473E+03	-3.32227E+00
 2.42758E+03	 1.41475E+01
 2.43043E+03	 6.13574E+01
 2.43328E+03	 3.16035E+01
 2.43613E+03	 8.20410E+00
 2.43897E+03	-2.48652E+01
 2.44181E+03	 1.39854E+01
 2.44465E+03	 8.24746E+01
 2.44749E+03	 5.33945E+01
 2.45033E+03	 4.25195E+01
 2.45316E+03	 2.83203E-01
 2.45600E+03	-1.83662E+01
 2.45883E+03	 3.45781E+01
 2.46166E+03	 8.77344E+00
 2.46449E+03	-3.18496E+01
 2.46732E+03	-7.74541E+01
 2.47014E+03	-5.14092E+01
 2.47296E+03	 8.80762E+00
 2.47579E+03	 5.87715E+01
 2.47861E+03	 8.42588E+01
 2.48143E+03	 1.40186E+01
 2.48424E+03	-3.74697E+01
 2.48706E+03	-3.77949E+01
 2.48987E+03	 1.04980E+01
 2.49268E+03	 6.58027E+01
 2.49549E+03	 7.29307E+01
 2.49830E+03	 8.29531E+01
 2.50111E+03	-7.81152E+00
 2.50392E+03	-7.04395E+01
 2.50672E+03	-5.78115E+01
 2.50952E+03	-5.02168E+01
 2.51232E+03	 2.26631E+01
 2.51512E+03	 1.24236E+02
 2.51792E+03	 2.71292E+02
 2.52072E+03	 3.42336E+02
 2.52351E+03	 2.31344E+02
 2.52630E+03	 7.57168E+01
 2.52909E+03	-1.00601E+02
 2.53188E+03	-1.53165E+02
 2.53467E+03	-8.35127E+01
 2.53746E+03	 6.52871E+01
 2.54024E+03	 1.44636E+02
 2.54302E+03	 1.37699E+02
 2.54580E+03	 1.37313E+02
 2.54858E+03	 1.33183E+02
 2.55136E+03	 9.32813E+01
 2.55414E+03	 4.37510E+01
 2.55691E+03	-4.74258E+01
 2.55968E+03	-6.46826E+01
 2.56246E+03	-5.94590E+01
 2.56523E+03	-1.91777E+01
 2.56799E+03	-5.23926E+00
 2.57076E+03	-4.10957E+01
 2.57353E+03	-3.00781E+00
 2.57629E+03	 5.78613E+01
 2.57905E+03	 1.06271E+02
 2.58181E+03	 1.22412E+02
 2.58457E+03	 7.31777E+01
 2.58733E+03	-5.58789E+00
 2.59008E+03	-7.91543E+01
 2.59283E+03	-7.82275E+01
 2.59559E+03	-5.85645E+00
 2.59834E+03	-1.07344E+01
 2.60109E+03	 2.70947E+01
 2.60383E+03	 6.85664E+01
 2.60658E+03	 6.10000E+01
 2.60932E+03	 4.74199E+01
 2.61207E+03	 2.21201E+01
 2.61481E+03	-1.71338E+01
 2.61755E+03	-8.00840E+01
 2.62028E+03	-2.63379E+01
 2.62302E+03	 6.13389E+01
 2.62575E+03	 6.25947E+01
 2.62849E+03	 4.51465E+00
 2.63122E+03	-3.54219E+01
 2.63395E+03	-5.36563E+01
 2.63668E+03	-1.56602E+01
 2.63940E+03	 4.38643E+01
 2.64213E+03	 8.03594E+01
 2.64485E+03	-2.70010E+01
 2.64757E+03	-6.75605E+01
 2.65029E+03	-2.57891E+01
 2.65301E+03	 7.35645E+00
 2.65573E+03	 5.43037E+01
 2.65845E+03	 7.42109E+01
 2.66116E+03	-4.89551E+00
 2.66387E+03	-1.92966E+02
 2.66658E+03	-6.10498E+01
 2.66929E+03	 1.81507E+02
 2.67200E+03	 3.80156E+02
 2.67471E+03	 4.67708E+02
 2.67741E+03	 4.23010E+02
 2.68012E+03	 2.05075E+02
 2.68282E+03	-1.74199E+01
 2.68552E+03	-5.39541E+01
 2.68822E+03	 6.82510E+01
 2.69091E+03	 2.20352E+01
 2.69361E+03	 4.38672E+01
 2.69630E+03	-2.46582E+00
 2.69899E+03	-3.20361E+01
 2.70168E+03	-1.99023E+01
 2.70437E+03	-3.71123E+01
 2.70706E+03	-2.96387E+00
 2.70975E+03	 4.52002E+01
 2.71243E+03	 6.94629E+01
 2.71511E+03	 7.84238E+01
 2.71780E+03	 7.16895E+01
 2.72048E+03	 6.36133E+01
 2.72315E+03	 3.32031E+00
 2.72583E+03	-2.85146E+01
 2.72851E+03	-3.04004E+00
 2.73118E+03	-1.36221E+01
 2.73385E+03	-1.95957E+01
 2.73652E+03	-2.48193E+01
 2.73919E+03	-2.35254E+01
 2.74186E+03	-2.38350E+01
 2.74453E+03	 1.62471E+01
 2.74719E+03	 6.55049E+01
 2.74985E+03	 8.07168E+01
 2.75251E+03	 6.51348E+01
 2.75517E+03	 7.56240E+01
 2.75783E+03	 3.62979E+01
 2.76049E+03	 2.92324E+01
 2.76315E+03	 3.06182E+01
 2.76580E+03	 2.18945E+01
 2.76845E+03	-1.59961E+00
 2.77110E+03	-9.43359E+00
 2.77375E+03	-1.61650E+01
 2.77640E+03	-3.24180E+01
 2.77905E+03	-1.82793E+01
 2.78169E+03	 1.73887E+01
 2.78433E+03	 1.18896E+01
 2.78698E+03	 3.13379E+00
 2.78962E+03	 4.11641E+01
 2.79226E+03	 2.52197E+01
 2.79489E+03	 3.07520E+00
 2.79753E+03	-2.02734E+01
 2.80016E+03	 1.32314E+01
 2.80280E+03	 6.43359E+00
 2.80543E+03	 1.10352E+00
 2.80806E+03	-2.26826E+01
 2.81068E+03	-2.03564E+01
 2.81331E+03	-3.67490E+01
 2.81594E+03	 3.32813E+00
 2.81856E+03	 9.92969E+00
 2.82118E+03	 1.43086E+01
 2.82380E+03	 9.23633E+00
 2.82642E+03	 1.87832E+01
 2.82904E+03	 2.20010E+01
 2.83166E+03	 1.80303E+01
 2.83427E+03	-1.71455E+01
 2.83689E+03	-4.94443E+01
 2.83950E+03	-5.11777E+01
 2.84211E+03	-3.45420E+01
 2.84472E+03	-2.10225E+01
 2.84732E+03	-1.10869E+01
 2.84993E+03	 6.25586E+00
 2.85253E+03	 3.33076E+01
 2.85514E+03	 6.54082E+01
 2.85774E+03	 1.00694E+02
 2.86034E+03	 8.62256E+01
 2.86294E+03	 4.46475E+01
 2.86553E+03	 3.33203E+00
 2.86813E+03	-1.85537E+01
 2.87072E+03	-5.62998E+01
 2.87332E+03	-2.64580E+01
 2.87591E+03	 2.24238E+01
 2.87850E+03	 5.74111E+01
 2.88109E+03	 7.76650E+01
 2.88367E+03	 7.08418E+01
 2.88626E+03	 2.29785E+01
 2.88884E+03	-1.75693E+01
 2.89142E+03	-4.38008E+01
 2.89401E+03	-6.54590E+00
 2.89659E+03	-6.05859E+00
 2.89916E+03	-2.27031E+01
 2.90174E+03	-2.20840E+01
 2.90432E+03	-1.26797E+01
 2.90689E+03	 3.91797E+01
 2.90946E+03	 6.67461E+01
 2.91203E+03	 7.30889E+01
 2.91460E+03	 3.58945E+01
 2.91717E+03	-1.45605E+00
 2.91974E+03	-4.84141E+01
 2.92230E+03	-2.78877E+01
 2.92486E+03	-1.14736E+01
 2.92743E+03	-2.62891E+00
 2.92999E+03	 2.35254E+00
 2.93255E+03	 3.15029E+01
 2.93510E+03	 6.14590E+01
 2.93766E+03	 4.08330E+01
 2.94021E+03	 1.02480E+01
 2.94277E+03	 1.78652E+01
 2.94532E+03	-1.81123E+01
 2.94787E+03	-2.80615E+01
 2.95042E+03	-1.38193E+01
 2.95297E+03	-5.12109E+00
 2.95551E+03	 3.28320E+00
 2.95806E+03	-1.47227E+01
 2.96060E+03	 1.20146E+01
 2.96314E+03	-8.62500E+00
 2.96568E+03	-2.30693E+01
 2.96822E+03	-7.84375E+00
 2.97076E+03	 2.10811E+01
 2.97330E+03	 4.19092E+01
 2.97583E+03	 2.88984E+01
 2.97837E+03	-1.20898E+00
 2.98090E+03	 1.23555E+01
 2.98343E+03	 2.27539E+00
 2.98596E+03	-1.61230E+00
 2.98849E+03	-7.29590E+00
 2.99101E+03	-1.52617E+01
 2.99354E+03	-5.19131E+01
 2.99606E+03	-6.37617E+01
 2.99858E+03	-7.12109E+00
 3.00110E+03	 5.25068E+01
 3.00362E+03	 7.20313E+01
 3.00614E+03	 7.47139E+01
 3.00866E+03	 3.42813E+01
 3.01117E+03	-2.10098E+01
 3.01369E+03	-3.42871E+01
 3.01620E+03	-3.56924E+01
 3.01871E+03	-2.25977E+00
 3.02122E+03	 3.35498E+01
 3.02373E+03	 3.93574E+01
 3.02623E+03	-1.00625E+01
 3.02874E+03	-2.11865E+01
 3.03124E+03	-1.95928E+01
 3.03374E+03	-1.46025E+01
 3.03625E+03	 1.40137E+00
 3.03875E+03	 1.49678E+01
 3.04124E+03	-1.91982E+01
 3.04374E+03	-4.65420E+01
 3.04624E+03	-4.75400E+01
 3.04873E+03	-2.27422E+01
 3.05122E+03	-1.32656E+01
 3.05371E+03	 1.36094E+01
 3.05620E+03	 1.99932E+01
 3.05869E+03	 2.26328E+01
 3.06118E+03	 5.54922E+01
 3.06367E+03	 6.39775E+01
 3.06615E+03	 5.61699E+01
 3.06863E+03	 5.63066E+01
 3.07111E+03	 3.36563E+01
 3.07359E+03	-1.04668E+01
 3.07607E+03	-2.71367E+01
 3.07855E+03	-3.73926E+01
 3.08103E+03	-1.30762E+01
 3.08350E+03	 2.30664E+01
 3.08598E+03	 4.70029E+01
 3.08845E+03	 3.47451E+01
 3.09092E+03	 4.75684E+00
 3.09339E+03	-1.76064E+01
 3.09586E+03	-3.17422E+01
 3.09832E+03	-4.96826E+01
 3.10079E+03	-3.77119E+01
