X-Axis	bare NPA 10x (CRR) (SG) (Sub BG)
-3.97831E+02	 1.01538E+00
-3.93106E+02	 2.30396E+00
-3.88385E+02	 3.90015E+00
-3.83668E+02	 3.99097E+00
-3.78954E+02	 5.29053E-01
-3.74244E+02	-8.93311E-01
-3.69537E+02	-4.86328E-01
-3.64833E+02	 2.45605E-01
-3.60133E+02	 1.75488E+00
-3.55437E+02	 1.56128E+00
-3.50744E+02	-8.09570E-01
-3.46054E+02	-1.59009E+00
-3.41368E+02	-1.88525E+00
-3.36685E+02	-3.83301E-02
-3.32006E+02	 1.44507E+00
-3.27330E+02	 3.19531E+00
-3.22658E+02	 1.31787E+00
-3.17989E+02	-7.65625E-01
-3.13323E+02	-2.85376E+00
-3.08661E+02	-3.44727E+00
-3.04002E+02	-3.07178E+00
-2.99347E+02	 1.68945E-01
-2.94695E+02	 1.32935E+00
-2.90047E+02	 2.59106E+00
-2.85402E+02	 2.71655E+00
-2.80760E+02	 2.21240E+00
-2.76122E+02	 3.90625E-03
-2.71487E+02	 1.66016E-01
-2.66855E+02	-1.29077E+00
-2.62227E+02	-1.87329E+00
-2.57603E+02	-3.05396E+00
-2.52981E+02	-1.63306E+00
-2.48363E+02	-1.58374E+00
-2.43749E+02	 3.69385E-01
-2.39138E+02	 1.24927E+00
-2.34530E+02	 1.71753E+00
-2.29925E+02	 1.76733E+00
-2.25324E+02	 1.84888E+00
-2.20726E+02	 1.46313E+00
-2.16132E+02	 9.42383E-01
-2.11541E+02	 2.00195E-01
-2.06953E+02	-4.89014E-01
-2.02369E+02	-1.81030E+00
-1.97788E+02	-1.09448E+00
-1.93210E+02	-2.18872E+00
-1.88636E+02	-2.48853E+00
-1.84065E+02	-1.58667E+00
-1.79497E+02	-7.35107E-01
-1.74932E+02	 1.21021E+00
-1.70371E+02	 2.58496E+00
-1.65814E+02	 1.52783E+00
-1.61259E+02	-2.89795E-01
-1.56708E+02	-2.27637E+00
-1.52160E+02	-3.09106E+00
-1.47615E+02	-1.32104E+00
-1.43074E+02	 1.18701E+00
-1.38536E+02	 3.94360E+00
-1.34001E+02	 2.91187E+00
-1.29470E+02	 1.28687E+00
-1.24942E+02	 3.01270E-01
-1.20417E+02	 5.73730E-02
-1.15896E+02	-6.62598E-01
-1.11377E+02	 1.63330E+00
-1.06862E+02	 1.96045E-01
-1.02350E+02	-5.91309E-01
-9.78419E+01	-2.21680E+00
-9.33366E+01	-2.53467E+00
-8.88346E+01	-2.49097E+00
-8.43359E+01	-1.00464E+00
-7.98404E+01	-3.12500E-02
-7.53481E+01	 1.62256E+00
-7.08591E+01	 5.75684E-01
-6.63733E+01	 3.89893E-01
-6.18908E+01	-4.88281E-02
-5.74114E+01	-2.12573E+00
-5.29353E+01	-7.18970E+00
-4.84625E+01	-1.00422E+01
-4.39928E+01	-6.68945E+00
-3.95264E+01	-5.16211E+00
-3.50632E+01	 2.70020E+00
-3.06031E+01	 2.69678E+00
-2.61463E+01	-1.49023E+00
-2.16927E+01	-1.17310E+01
-1.72423E+01	-1.75508E+01
-1.27951E+01	-7.62939E+00
-8.35111E+00	 6.30986E+01
-3.91029E+00	 1.44088E+02
 5.27351E-01	 1.99266E+02
 4.96181E+00	 2.13867E+02
 9.39308E+00	 1.91120E+02
 1.38212E+01	 1.21542E+02
 1.82461E+01	 3.90508E+01
 2.26679E+01	-1.78652E+01
 2.70865E+01	-3.77544E+01
 3.15019E+01	-8.82227E+01
 3.59141E+01	-1.52386E+02
 4.03233E+01	-7.65620E+01
 4.47292E+01	 7.96401E+01
 4.91320E+01	 1.45781E+01
 5.35317E+01	 7.15655E+02
 5.79282E+01	 1.86037E+03
 6.23216E+01	 3.06142E+03
 6.67118E+01	 4.20133E+03
 7.10989E+01	 5.13595E+03
 7.54829E+01	 5.77518E+03
 7.98637E+01	 6.13807E+03
 8.42415E+01	 6.29671E+03
 8.86161E+01	 6.31195E+03
 9.29876E+01	 6.14534E+03
 9.73559E+01	 5.87045E+03
 1.01721E+02	 5.52724E+03
 1.06083E+02	 5.07461E+03
 1.10442E+02	 4.63724E+03
 1.14798E+02	 4.31100E+03
 1.19151E+02	 4.05104E+03
 1.23501E+02	 3.82761E+03
 1.27848E+02	 3.61027E+03
 1.32191E+02	 3.40961E+03
 1.36532E+02	 3.18992E+03
 1.40869E+02	 3.00539E+03
 1.45203E+02	 2.85631E+03
 1.49535E+02	 2.70994E+03
 1.53863E+02	 2.53485E+03
 1.58188E+02	 2.33327E+03
 1.62510E+02	 2.07038E+03
 1.66829E+02	 1.85678E+03
 1.71145E+02	 1.70159E+03
 1.75458E+02	 1.61038E+03
 1.79768E+02	 1.58530E+03
 1.84074E+02	 1.59757E+03
 1.88378E+02	 1.57211E+03
 1.92679E+02	 1.47535E+03
 1.96976E+02	 1.39031E+03
 2.01271E+02	 1.30321E+03
 2.05562E+02	 1.20842E+03
 2.09851E+02	 1.18632E+03
 2.14136E+02	 1.25549E+03
 2.18419E+02	 1.34448E+03
 2.22698E+02	 1.41473E+03
 2.26975E+02	 1.43262E+03
 2.31248E+02	 1.43874E+03
 2.35519E+02	 1.43463E+03
 2.39786E+02	 1.49235E+03
 2.44050E+02	 1.57781E+03
 2.48312E+02	 1.66123E+03
 2.52570E+02	 1.71348E+03
 2.56825E+02	 1.70843E+03
 2.61078E+02	 1.66390E+03
 2.65327E+02	 1.59363E+03
 2.69574E+02	 1.52356E+03
 2.73817E+02	 1.46338E+03
 2.78057E+02	 1.41287E+03
 2.82295E+02	 1.34201E+03
 2.86529E+02	 1.23782E+03
 2.90761E+02	 1.09873E+03
 2.94989E+02	 9.66907E+02
 2.99215E+02	 8.65452E+02
 3.03438E+02	 8.03313E+02
 3.07657E+02	 7.59225E+02
 3.11874E+02	 7.15391E+02
 3.16088E+02	 6.34955E+02
 3.20298E+02	 5.57623E+02
 3.24506E+02	 4.77842E+02
 3.28711E+02	 4.07527E+02
 3.32913E+02	 3.70055E+02
 3.37112E+02	 3.48028E+02
 3.41308E+02	 3.29707E+02
 3.45501E+02	 3.17481E+02
 3.49691E+02	 2.93416E+02
 3.53879E+02	 2.66712E+02
 3.58063E+02	 2.39208E+02
 3.62244E+02	 1.96596E+02
 3.66423E+02	 1.77328E+02
 3.70598E+02	 1.68652E+02
 3.74771E+02	 1.71367E+02
 3.78941E+02	 1.57471E+02
 3.83108E+02	 1.18491E+02
 3.87272E+02	 1.15743E+02
 3.91433E+02	 1.42642E+02
 3.95591E+02	 1.62118E+02
 3.99746E+02	 1.80559E+02
 4.03898E+02	 1.63771E+02
 4.08048E+02	 1.26349E+02
 4.12194E+02	 1.13799E+02
 4.16338E+02	 1.15845E+02
 4.20479E+02	 1.17606E+02
 4.24617E+02	 1.04151E+02
 4.28752E+02	 8.34941E+01
 4.32884E+02	 7.00083E+01
 4.37013E+02	 5.30498E+01
 4.41140E+02	 1.93530E+01
 4.45263E+02	-1.01860E+01
 4.49384E+02	-3.15117E+01
 4.53502E+02	-3.10044E+01
 4.57617E+02	 2.11230E+00
 4.61729E+02	 4.24087E+01
 4.65838E+02	 6.78228E+01
 4.69945E+02	 4.00278E+01
 4.74048E+02	-1.58208E+01
 4.78149E+02	-6.82168E+01
 4.82247E+02	-9.80737E+01
 4.86342E+02	-8.08564E+01
 4.90434E+02	-1.73325E+01
 4.94524E+02	 4.02739E+01
 4.98610E+02	 6.59038E+01
 5.02694E+02	 3.68931E+01
 5.06775E+02	 2.93555E+00
 5.10853E+02	-2.60498E+01
 5.14929E+02	-2.08848E+01
 5.19001E+02	 2.81006E+00
 5.23071E+02	 3.61577E+01
 5.27138E+02	 5.96167E+01
 5.31202E+02	 4.34360E+01
 5.35263E+02	-5.81836E+00
 5.39322E+02	-3.07861E+01
 5.43377E+02	-4.90552E+01
 5.47430E+02	-3.99385E+01
 5.51480E+02	-1.18311E+01
 5.55528E+02	 1.05400E+01
 5.59572E+02	 1.43569E+01
 5.63614E+02	-8.32520E-01
 5.67653E+02	-1.34561E+01
 5.71689E+02	-1.14893E+00
 5.75723E+02	 2.03271E+00
 5.79753E+02	 6.63037E+00
 5.83781E+02	 2.20898E+00
 5.87806E+02	-8.51318E+00
 5.91829E+02	-3.23237E+01
 5.95848E+02	-5.00313E+01
 5.99865E+02	-2.86411E+01
 6.03879E+02	-1.12891E+01
 6.07891E+02	-1.58501E+01
 6.11899E+02	-2.65522E+01
 6.15905E+02	-9.68408E+00
 6.19908E+02	 1.88442E+01
 6.23908E+02	 5.05435E+01
 6.27906E+02	 8.45664E+01
 6.31901E+02	 9.69180E+01
 6.35893E+02	 7.83247E+01
 6.39882E+02	 6.94238E+01
 6.43869E+02	 7.32886E+01
 6.47853E+02	 6.45781E+01
 6.51834E+02	 4.11909E+01
 6.55813E+02	 1.62241E+01
 6.59789E+02	-1.29688E+00
 6.63762E+02	 4.48096E+00
 6.67732E+02	 3.85815E+01
 6.71700E+02	 6.88096E+01
 6.75665E+02	 6.57588E+01
 6.79627E+02	 3.99653E+01
 6.83587E+02	 5.94922E+00
 6.87544E+02	-3.66802E+01
 6.91498E+02	-3.69004E+01
 6.95449E+02	 3.36768E+00
 6.99398E+02	 3.16001E+01
 7.03344E+02	 3.74751E+01
 7.07288E+02	 2.82988E+01
 7.11228E+02	 8.20898E+00
 7.15166E+02	-6.49561E+00
 7.19102E+02	 1.14624E+01
 7.23034E+02	 3.35093E+01
 7.26965E+02	 1.61528E+01
 7.30892E+02	-2.20732E+01
 7.34817E+02	-4.84453E+01
 7.38739E+02	-5.61177E+01
 7.42658E+02	-2.66694E+01
 7.46575E+02	 2.09717E+01
 7.50489E+02	 6.16167E+01
 7.54400E+02	 5.66582E+01
 7.58309E+02	 2.54482E+01
 7.62215E+02	-4.15527E+00
 7.66119E+02	-4.12393E+01
 7.70019E+02	-6.26812E+01
 7.73918E+02	-3.89321E+01
 7.77813E+02	 5.66260E+00
 7.81706E+02	 3.01274E+01
 7.85596E+02	 2.86987E+01
 7.89484E+02	-3.20410E+00
 7.93369E+02	-4.20640E+01
 7.97251E+02	-6.21167E+01
 8.01131E+02	-3.25654E+01
 8.05008E+02	 3.08447E+00
 8.08883E+02	 2.08779E+01
 8.12755E+02	 3.49478E+01
 8.16624E+02	 2.84663E+01
 8.20491E+02	 4.26709E+00
 8.24355E+02	 1.15000E+01
 8.28217E+02	 6.08350E+00
 8.32075E+02	 2.04487E+01
 8.35932E+02	 4.91099E+01
 8.39785E+02	 9.99634E+01
 8.43637E+02	 1.27724E+02
 8.47485E+02	 1.00188E+02
 8.51331E+02	 5.30352E+01
 8.55174E+02	 6.51416E+00
 8.59015E+02	-3.41870E+01
 8.62853E+02	-1.44775E+01
 8.66689E+02	 2.53809E+00
 8.70522E+02	 2.18853E+01
 8.74352E+02	 2.47021E+01
 8.78180E+02	 1.62759E+01
 8.82006E+02	 1.21914E+01
 8.85828E+02	 4.40625E+00
 8.89648E+02	-1.29487E+01
 8.93466E+02	-9.95361E+00
 8.97281E+02	-8.98145E+00
 9.01094E+02	 7.67432E+00
 9.04904E+02	 2.39370E+01
 9.08711E+02	 2.81909E+01
 9.12516E+02	 1.22183E+01
 9.16318E+02	-8.42432E+00
 9.20118E+02	-2.07017E+01
 9.23915E+02	-1.21826E+00
 9.27710E+02	 5.85889E+00
 9.31502E+02	 2.70166E+00
 9.35292E+02	-6.33643E+00
 9.39079E+02	-1.35864E+01
 9.42863E+02	-7.01221E+00
 9.46645E+02	 1.20952E+01
 9.50425E+02	 8.09473E+00
 9.54202E+02	-1.29751E+01
 9.57976E+02	-3.22007E+01
 9.61748E+02	-2.34648E+01
 9.65517E+02	-1.00210E+01
 9.69284E+02	-7.56250E+00
 9.73049E+02	-1.44766E+01
 9.76811E+02	-2.64824E+01
 9.80570E+02	-2.15352E+01
 9.84327E+02	 9.46191E+00
 9.88081E+02	 4.04961E+01
 9.91833E+02	 4.40317E+01
 9.95583E+02	 3.95322E+01
 9.99329E+02	 3.38076E+01
 1.00307E+03	 2.83696E+01
 1.00682E+03	 1.57163E+01
 1.01056E+03	 4.66797E+00
 1.01429E+03	-2.60059E+00
 1.01803E+03	-7.54883E-01
 1.02176E+03	 6.26123E+00
 1.02549E+03	 1.61318E+01
 1.02922E+03	 8.95605E+00
 1.03294E+03	-1.17148E+01
 1.03666E+03	-2.47754E+01
 1.04038E+03	-1.36885E+01
 1.04410E+03	 5.12451E+00
 1.04781E+03	 2.13501E+01
 1.05153E+03	 2.59653E+01
 1.05524E+03	 1.40933E+01
 1.05894E+03	-1.93994E+00
 1.06265E+03	-1.17026E+01
 1.06635E+03	-1.86602E+01
 1.07005E+03	-2.47954E+01
 1.07375E+03	-2.66558E+01
 1.07744E+03	-2.22236E+01
 1.08114E+03	-1.57808E+01
 1.08483E+03	-1.86802E+01
 1.08851E+03	-1.63042E+01
 1.09220E+03	-1.22788E+01
 1.09588E+03	-4.75098E+00
 1.09956E+03	 3.27393E+00
 1.10324E+03	 2.13179E+01
 1.10692E+03	 4.40024E+01
 1.11059E+03	 5.16641E+01
 1.11426E+03	 4.63022E+01
 1.11793E+03	 4.17085E+01
 1.12159E+03	 1.83799E+01
 1.12526E+03	-8.99902E+00
 1.12892E+03	-2.63286E+01
 1.13258E+03	-2.48232E+01
 1.13623E+03	-2.53511E+01
 1.13989E+03	-1.16152E+01
 1.14354E+03	 1.95400E+01
 1.14719E+03	 4.88149E+01
 1.15084E+03	 6.14946E+01
 1.15448E+03	 6.83379E+01
 1.15812E+03	 5.25249E+01
 1.16176E+03	 3.05977E+01
 1.16540E+03	 1.69541E+01
 1.16903E+03	 2.24536E+01
 1.17267E+03	 3.69790E+01
 1.17630E+03	 5.51826E+01
 1.17992E+03	 5.60386E+01
 1.18355E+03	 4.71636E+01
 1.18717E+03	 3.44873E+01
 1.19079E+03	 3.49028E+01
 1.19441E+03	 4.22886E+01
 1.19803E+03	 4.56250E+01
 1.20164E+03	 4.28198E+01
 1.20525E+03	 2.98076E+01
 1.20886E+03	 1.85630E+01
 1.21246E+03	 3.26367E+01
 1.21607E+03	 4.89844E+01
 1.21967E+03	 5.27573E+01
 1.22327E+03	 6.77363E+01
 1.22687E+03	 7.74248E+01
 1.23046E+03	 8.28750E+01
 1.23405E+03	 7.84111E+01
 1.23764E+03	 6.79673E+01
 1.24123E+03	 4.66816E+01
 1.24482E+03	 1.77485E+01
 1.24840E+03	 1.16226E+01
 1.25198E+03	 2.83848E+01
 1.25556E+03	 5.10601E+01
 1.25913E+03	 7.33960E+01
 1.26271E+03	 7.26738E+01
 1.26628E+03	 6.38213E+01
 1.26985E+03	 5.53496E+01
 1.27341E+03	 5.40176E+01
 1.27698E+03	 5.91729E+01
 1.28054E+03	 6.66240E+01
 1.28410E+03	 6.77979E+01
 1.28766E+03	 5.61812E+01
 1.29121E+03	 4.26255E+01
 1.29476E+03	 3.14502E+01
 1.29831E+03	 1.00269E+01
 1.30186E+03	-6.04004E+00
 1.30541E+03	-1.35537E+01
 1.30895E+03	-5.75977E+00
 1.31249E+03	 8.99854E+00
 1.31603E+03	 1.36250E+01
 1.31957E+03	 1.79023E+01
 1.32310E+03	 2.35786E+01
 1.32663E+03	 2.32617E+01
 1.33016E+03	 2.35479E+01
 1.33369E+03	 1.90503E+01
 1.33722E+03	 1.60620E+01
 1.34074E+03	 1.74751E+01
 1.34426E+03	 1.56543E+01
 1.34778E+03	 1.78091E+01
 1.35129E+03	 7.12354E+00
 1.35481E+03	 1.07861E+00
 1.35832E+03	 4.27393E+00
 1.36183E+03	 7.59961E+00
 1.36534E+03	 1.46665E+01
 1.36884E+03	 1.73110E+01
 1.37234E+03	 4.07764E+00
 1.37584E+03	-1.57275E+01
 1.37934E+03	-1.89849E+01
 1.38284E+03	-1.53750E+01
 1.38633E+03	 1.34326E+00
 1.38982E+03	 1.82686E+01
 1.39331E+03	 2.74004E+01
 1.39680E+03	 2.54678E+01
 1.40028E+03	 1.96060E+01
 1.40376E+03	 5.21484E+00
 1.40724E+03	 8.56445E-01
 1.41072E+03	-6.02002E+00
 1.41420E+03	-2.55518E+00
 1.41767E+03	-1.02407E+01
 1.42114E+03	-2.68457E+00
 1.42461E+03	 1.21455E+01
 1.42808E+03	 1.81904E+01
 1.43154E+03	 1.13721E+01
 1.43500E+03	 9.44824E+00
 1.43846E+03	 9.14063E-01
 1.44192E+03	-3.73047E+00
 1.44537E+03	-5.01025E+00
 1.44883E+03	 1.36621E+00
 1.45228E+03	-2.81836E+00
 1.45573E+03	-3.72314E+00
 1.45917E+03	-4.39063E+00
 1.46262E+03	-6.83594E+00
 1.46606E+03	-4.22217E+00
 1.46950E+03	-3.60840E-01
 1.47294E+03	-9.85449E+00
 1.47637E+03	-1.39595E+01
 1.47981E+03	 4.10156E-01
 1.48324E+03	 1.28301E+01
 1.48667E+03	 2.09692E+01
 1.49009E+03	 2.37949E+01
 1.49352E+03	 2.08857E+01
 1.49694E+03	 3.45361E+00
 1.50036E+03	-1.17158E+01
 1.50378E+03	-1.20332E+01
 1.50720E+03	-1.06685E+01
 1.51061E+03	-6.63623E+00
 1.51402E+03	 6.89453E-01
 1.51743E+03	 9.41162E+00
 1.52084E+03	 1.01597E+01
 1.52424E+03	 1.00308E+01
 1.52764E+03	 2.09312E+01
 1.53105E+03	 2.09600E+01
 1.53444E+03	 1.68203E+01
 1.53784E+03	 1.56924E+01
 1.54123E+03	 5.97607E+00
 1.54463E+03	 2.74072E+00
 1.54802E+03	 5.70508E+00
 1.55140E+03	 1.85581E+01
 1.55479E+03	 2.23906E+01
 1.55817E+03	 1.60122E+01
 1.56155E+03	 1.85488E+01
 1.56493E+03	 1.76450E+01
 1.56831E+03	 1.58535E+01
 1.57168E+03	 1.77827E+01
 1.57506E+03	 1.30493E+01
 1.57843E+03	 1.30044E+01
 1.58180E+03	 1.76333E+01
 1.58516E+03	 2.07939E+01
 1.58853E+03	 3.09541E+01
 1.59189E+03	 3.15400E+01
 1.59525E+03	 2.55059E+01
 1.59861E+03	 2.59033E+01
 1.60196E+03	 2.13501E+01
 1.60531E+03	 9.21484E+00
 1.60867E+03	-6.38574E+00
 1.61202E+03	-8.21680E+00
 1.61536E+03	-3.97510E+00
 1.61871E+03	-3.43848E+00
 1.62205E+03	 4.35254E+00
 1.62539E+03	 7.85107E+00
 1.62873E+03	 1.19922E+00
 1.63207E+03	 9.16504E-01
 1.63540E+03	 3.31543E+00
 1.63873E+03	 2.85156E-01
 1.64206E+03	-2.66162E+00
 1.64539E+03	-3.39746E+00
 1.64872E+03	-3.15771E+00
 1.65204E+03	-3.74756E+00
 1.65536E+03	 1.00098E-01
 1.65868E+03	-8.39844E-02
 1.66200E+03	-1.81641E-01
 1.66532E+03	 5.16113E-01
 1.66863E+03	 3.15869E+00
 1.67194E+03	 1.77783E+00
 1.67525E+03	 1.23779E+00
 1.67856E+03	 1.07031E+00
 1.68186E+03	 5.79688E+00
 1.68516E+03	 3.33252E+00
 1.68847E+03	-5.81543E-01
 1.69176E+03	-4.76514E+00
 1.69506E+03	-4.25684E+00
 1.69836E+03	-2.31934E-01
 1.70165E+03	 1.03369E+00
 1.70494E+03	-1.18555E+00
 1.70823E+03	-3.10596E+00
 1.71151E+03	 1.21045E+00
 1.71480E+03	 7.07813E+00
 1.71808E+03	 1.01299E+01
 1.72136E+03	 5.84863E+00
 1.72464E+03	-3.20117E+00
 1.72792E+03	-8.72754E+00
 1.73119E+03	-3.93896E+00
 1.73446E+03	 4.59033E+00
 1.73773E+03	 1.09536E+01
 1.74100E+03	 7.13965E+00
 1.74427E+03	 2.89844E+00
 1.74753E+03	-5.30273E+00
 1.75079E+03	-9.22070E+00
 1.75405E+03	-6.16406E+00
 1.75731E+03	-8.26172E-01
 1.76057E+03	 7.36426E+00
 1.76382E+03	 1.52915E+01
 1.76707E+03	 1.17036E+01
 1.77032E+03	 3.06689E+00
 1.77357E+03	-2.33008E+00
 1.77681E+03	 2.88086E-02
 1.78006E+03	 2.43359E+00
 1.78330E+03	 3.72656E+00
 1.78654E+03	 2.10059E+00
 1.78978E+03	 1.19336E+00
 1.79301E+03	-3.29980E+00
 1.79625E+03	-2.71631E+00
 1.79948E+03	-9.61426E-01
 1.80271E+03	-1.05859E+00
 1.80593E+03	-2.77344E-01
 1.80916E+03	 3.05908E+00
 1.81238E+03	 5.99268E+00
 1.81560E+03	 7.85303E+00
 1.81882E+03	 1.96973E+00
 1.82204E+03	-2.54004E+00
 1.82526E+03	-2.13965E+00
 1.82847E+03	-1.69238E+00
 1.83168E+03	 1.95752E+00
 1.83489E+03	 1.48047E+00
 1.83810E+03	 2.41748E+00
 1.84130E+03	 2.76611E+00
 1.84451E+03	 3.55713E+00
 1.84771E+03	 5.89648E+00
 1.85091E+03	 7.72070E+00
 1.85411E+03	 6.79639E+00
 1.85730E+03	 7.46387E+00
 1.86049E+03	 6.61426E+00
 1.86369E+03	 6.90332E+00
 1.86688E+03	 4.33350E+00
 1.87006E+03	 4.62500E+00
 1.87325E+03	 4.09033E+00
 1.87643E+03	 3.02002E+00
 1.87961E+03	-2.01172E-01
 1.88279E+03	-1.21045E+00
 1.88597E+03	-3.25928E+00
 1.88915E+03	-1.73682E+00
 1.89232E+03	 2.40625E+00
 1.89549E+03	 4.94629E+00
 1.89866E+03	 4.54590E-01
 1.90183E+03	-3.03076E+00
 1.90500E+03	-2.07959E+00
 1.90816E+03	-1.34521E+00
 1.91132E+03	 3.28613E-01
 1.91448E+03	 1.73389E+00
 1.91764E+03	 1.69580E+00
 1.92080E+03	 1.17676E-01
 1.92395E+03	-1.43555E+00
 1.92710E+03	 1.67334E+00
 1.93025E+03	 1.14844E+00
 1.93340E+03	 7.77832E-01
 1.93655E+03	 4.24170E+00
 1.93969E+03	 2.87158E+00
 1.94284E+03	 3.14355E+00
 1.94598E+03	-1.85107E+00
 1.94912E+03	-2.77686E+00
 1.95225E+03	-1.72510E+00
 1.95539E+03	-1.58398E+00
 1.95852E+03	-5.99121E-01
 1.96165E+03	 1.78369E+00
 1.96478E+03	 1.02295E+00
 1.96791E+03	 3.78906E+00
 1.97103E+03	 5.11963E+00
 1.97416E+03	 6.44287E+00
 1.97728E+03	 1.79248E+00
 1.98040E+03	-3.04688E+00
 1.98352E+03	-1.03955E+00
 1.98663E+03	 2.37061E+00
 1.98975E+03	 4.15234E+00
 1.99286E+03	 7.45117E+00
 1.99597E+03	 2.76172E+00
 1.99908E+03	-2.72070E+00
 2.00218E+03	-5.22998E+00
 2.00529E+03	-9.16504E-01
 2.00839E+03	 4.06006E+00
 2.01149E+03	 1.50488E+00
 2.01459E+03	-1.78125E+00
 2.01769E+03	-1.73340E+00
 2.02078E+03	-1.36621E+00
 2.02387E+03	 2.19189E+00
 2.02696E+03	 4.01514E+00
 2.03005E+03	 4.17236E+00
 2.03314E+03	-2.70020E-01
 2.03623E+03	-2.19873E+00
 2.03931E+03	-7.32422E-01
 2.04239E+03	 1.24609E+00
 2.04547E+03	 1.80469E+00
 2.04855E+03	 3.30029E+00
 2.05163E+03	 5.06445E+00
 2.05470E+03	 2.81250E+00
 2.05777E+03	-2.14941E+00
 2.06084E+03	-3.99023E+00
 2.06391E+03	-5.24121E+00
 2.06698E+03	-7.83203E-01
 2.07004E+03	 3.79346E+00
 2.07310E+03	 2.72119E+00
 2.07617E+03	 8.75977E-01
 2.07923E+03	-1.80713E+00
 2.08228E+03	-1.91992E+00
 2.08534E+03	-1.18652E-01
 2.08839E+03	 1.69287E+00
 2.09144E+03	 3.18555E+00
 2.09449E+03	 2.27930E+00
 2.09754E+03	-1.54883E+00
 2.10059E+03	-3.42285E+00
 2.10363E+03	-6.60596E+00
 2.10667E+03	-5.81982E+00
 2.10972E+03	-1.59229E+00
 2.11275E+03	 2.06885E+00
 2.11579E+03	 4.58105E+00
 2.11883E+03	 4.76758E+00
 2.12186E+03	 2.81738E+00
 2.12489E+03	 3.45215E+00
 2.12792E+03	 9.56543E-01
 2.13095E+03	-6.35254E-01
 2.13397E+03	-4.63379E+00
 2.13700E+03	-4.69043E+00
 2.14002E+03	-6.72363E-01
 2.14304E+03	 3.94873E+00
 2.14606E+03	 7.76514E+00
 2.14908E+03	 7.27295E+00
 2.15209E+03	 3.77441E+00
 2.15511E+03	 2.63525E+00
 2.15812E+03	 1.91016E+00
 2.16113E+03	 2.76514E+00
 2.16413E+03	 2.19189E+00
 2.16714E+03	 3.51563E-02
 2.17014E+03	-1.87451E+00
 2.17315E+03	-1.84473E+00
 2.17615E+03	 7.34375E-01
 2.17915E+03	 1.93799E+00
 2.18214E+03	 2.24902E+00
 2.18514E+03	 5.80078E-01
 2.18813E+03	-4.79004E-01
 2.19112E+03	-1.04248E+00
 2.19411E+03	-1.58203E-01
 2.19710E+03	 1.12793E+00
 2.20009E+03	 1.37891E+00
 2.20307E+03	 3.83887E+00
 2.20605E+03	 3.53369E+00
 2.20903E+03	 1.36865E+00
 2.21201E+03	-1.96289E-01
 2.21499E+03	-4.15186E+00
 2.21796E+03	-4.60596E+00
 2.22094E+03	-1.65088E+00
 2.22391E+03	 4.60400E+00
 2.22688E+03	 9.57861E+00
 2.22985E+03	 8.31494E+00
 2.23281E+03	 6.60376E+00
 2.23578E+03	 4.69971E+00
 2.23874E+03	 2.04224E+00
 2.24170E+03	 1.41772E+00
 2.24466E+03	 2.92969E-02
 2.24762E+03	 2.47559E-01
 2.25058E+03	-7.63428E-01
 2.25353E+03	-2.05884E+00
 2.25648E+03	 1.71143E-01
 2.25943E+03	 1.66382E+00
 2.26238E+03	 1.82153E+00
 2.26533E+03	 3.92847E+00
 2.26827E+03	 3.72778E+00
 2.27122E+03	 2.03223E+00
 2.27416E+03	-1.01147E+00
 2.27710E+03	-3.53760E+00
 2.28004E+03	-3.09473E+00
 2.28297E+03	-2.55469E+00
 2.28591E+03	 1.55762E+00
 2.28884E+03	 3.47412E+00
 2.29177E+03	 2.49927E+00
 2.29470E+03	 1.05420E+00
 2.29763E+03	-2.25684E+00
 2.30055E+03	-3.18481E+00
 2.30348E+03	-3.09668E+00
 2.30640E+03	-1.68848E+00
 2.30932E+03	 7.96875E-01
 2.31224E+03	 1.52930E+00
 2.31516E+03	 1.35815E+00
 2.31807E+03	 1.17432E+00
 2.32099E+03	-1.85059E-01
 2.32390E+03	-2.20361E+00
 2.32681E+03	-6.76074E+00
 2.32972E+03	-4.89941E+00
 2.33262E+03	-1.27783E+00
 2.33553E+03	 2.94434E+00
 2.33843E+03	 5.95972E+00
 2.34133E+03	 7.05347E+00
 2.34423E+03	 4.33545E+00
 2.34713E+03	 1.62036E+00
 2.35003E+03	 1.65039E+00
 2.35292E+03	 3.40332E+00
 2.35581E+03	 9.18213E-01
 2.35871E+03	-8.07861E-01
 2.36160E+03	-2.42163E+00
 2.36448E+03	-2.53467E+00
 2.36737E+03	-8.67188E-01
 2.37025E+03	 5.00977E-01
 2.37314E+03	 2.48022E+00
 2.37602E+03	 1.68237E+00
 2.37890E+03	 8.88184E-01
 2.38177E+03	-1.05371E+00
 2.38465E+03	-2.90479E+00
 2.38752E+03	-3.61670E+00
 2.39040E+03	-1.83496E+00
 2.39327E+03	 8.59131E-01
 2.39614E+03	 3.43799E+00
 2.39900E+03	 3.98486E+00
 2.40187E+03	 2.38013E+00
 2.40473E+03	 1.29761E+00
 2.40760E+03	 1.15308E+00
 2.41046E+03	-2.05811E-01
 2.41332E+03	 1.01831E+00
 2.41617E+03	 1.20117E+00
 2.41903E+03	 2.06421E+00
 2.42188E+03	 4.28955E-01
 2.42473E+03	-1.05322E+00
 2.42758E+03	-6.05713E-01
 2.43043E+03	-1.90845E+00
 2.43328E+03	-2.62500E+00
 2.43613E+03	-1.31592E+00
 2.43897E+03	 1.20825E+00
 2.44181E+03	 2.56665E+00
 2.44465E+03	 1.05664E+00
 2.44749E+03	 1.18677E+00
 2.45033E+03	 1.04736E-01
 2.45316E+03	-1.93774E+00
 2.45600E+03	-9.27490E-01
 2.45883E+03	 1.88721E-01
 2.46166E+03	-4.69482E-01
 2.46449E+03	-1.49976E+00
 2.46732E+03	-8.81104E-01
 2.47014E+03	 6.40381E-01
 2.47296E+03	 2.01050E+00
 2.47579E+03	 1.96655E+00
 2.47861E+03	 5.61523E-01
 2.48143E+03	-1.41064E+00
 2.48424E+03	 4.29199E-01
 2.48706E+03	 1.30884E+00
 2.48987E+03	 2.77344E-01
 2.49268E+03	-1.52197E+00
 2.49549E+03	-4.52612E+00
 2.49830E+03	-4.64014E+00
 2.50111E+03	-1.11914E+00
 2.50392E+03	 2.07642E+00
 2.50672E+03	 3.15527E+00
 2.50952E+03	 9.43604E-01
 2.51232E+03	-1.82056E+00
 2.51512E+03	-1.05103E+00
 2.51792E+03	 3.58228E+00
 2.52072E+03	 5.78345E+00
 2.52351E+03	 3.79663E+00
 2.52630E+03	-4.95850E-01
 2.52909E+03	-2.17383E+00
 2.53188E+03	-3.64136E+00
 2.53467E+03	-1.93384E+00
 2.53746E+03	 1.87573E+00
 2.54024E+03	 3.72485E+00
 2.54302E+03	 1.26880E+00
 2.54580E+03	 1.20605E+00
 2.54858E+03	 9.20410E-02
 2.55136E+03	-5.43701E-01
 2.55414E+03	-3.08594E+00
 2.55691E+03	-2.42603E+00
 2.55968E+03	-1.97656E+00
 2.56246E+03	-5.02686E-01
 2.56523E+03	 6.78711E-01
 2.56799E+03	 3.41577E+00
 2.57076E+03	 1.37622E+00
 2.57353E+03	-4.44336E-01
 2.57629E+03	-1.78149E+00
 2.57905E+03	-2.43335E+00
 2.58181E+03	-4.42627E-01
 2.58457E+03	 1.53784E+00
 2.58733E+03	 1.29346E+00
 2.59008E+03	-9.08203E-01
 2.59283E+03	-2.53247E+00
 2.59559E+03	-1.56689E+00
 2.59834E+03	-2.94849E+00
 2.60109E+03	-1.10620E+00
 2.60383E+03	 2.26855E+00
 2.60658E+03	 2.14185E+00
 2.60932E+03	 2.60376E+00
 2.61207E+03	 1.24707E+00
 2.61481E+03	 9.35547E-01
 2.61755E+03	-1.52661E+00
 2.62028E+03	-5.48096E-01
 2.62302E+03	 2.13306E+00
 2.62575E+03	 1.31104E+00
 2.62849E+03	 6.99707E-01
 2.63122E+03	-6.72852E-01
 2.63395E+03	-2.04688E+00
 2.63668E+03	-9.95117E-01
 2.63940E+03	-1.37354E+00
 2.64213E+03	-1.57959E-01
 2.64485E+03	 1.95313E-02
 2.64757E+03	 1.31494E+00
 2.65029E+03	 9.95361E-01
 2.65301E+03	 3.64014E-01
 2.65573E+03	 7.85400E-01
 2.65845E+03	 2.89551E-01
 2.66116E+03	 1.79443E-01
 2.66387E+03	 1.32422E+00
 2.66658E+03	-2.01660E-01
 2.66929E+03	-2.11646E+00
 2.67200E+03	-2.74243E+00
 2.67471E+03	-1.61572E+00
 2.67741E+03	-8.34961E-01
 2.68012E+03	-1.68457E-02
 2.68282E+03	 1.76025E-01
 2.68552E+03	-5.84717E-01
 2.68822E+03	-3.49121E-01
 2.69091E+03	 1.85962E+00
 2.69361E+03	 2.65894E+00
 2.69630E+03	 1.02295E+00
 2.69899E+03	-4.43604E-01
 2.70168E+03	 1.51611E-01
 2.70437E+03	-6.51855E-01
 2.70706E+03	 8.56201E-01
 2.70975E+03	 2.08740E-01
 2.71243E+03	-1.09961E+00
 2.71511E+03	-3.01416E+00
 2.71780E+03	-2.66992E+00
 2.72048E+03	 7.79297E-01
 2.72315E+03	 2.22339E+00
 2.72583E+03	 1.76709E+00
 2.72851E+03	 2.42139E+00
 2.73118E+03	-6.70166E-01
 2.73385E+03	-1.53906E+00
 2.73652E+03	-1.85596E+00
 2.73919E+03	-1.23926E+00
 2.74186E+03	-1.39404E-01
 2.74453E+03	-5.22705E-01
 2.74719E+03	 3.32764E-01
 2.74985E+03	 1.17432E-01
 2.75251E+03	 4.88281E-01
 2.75517E+03	 6.05713E-01
 2.75783E+03	 4.68506E-01
 2.76049E+03	-2.58789E-01
 2.76315E+03	 9.28955E-01
 2.76580E+03	 1.07568E+00
 2.76845E+03	 1.34424E+00
 2.77110E+03	-1.00342E-01
 2.77375E+03	-5.52490E-01
 2.77640E+03	-2.21484E+00
 2.77905E+03	-1.45532E+00
 2.78169E+03	-1.02124E+00
 2.78433E+03	 5.74707E-01
 2.78698E+03	 1.12061E+00
 2.78962E+03	 1.88208E+00
 2.79226E+03	 1.64966E+00
 2.79489E+03	 1.60010E+00
 2.79753E+03	 1.14404E+00
 2.80016E+03	 3.00049E-01
 2.80280E+03	-9.62646E-01
 2.80543E+03	-9.84375E-01
 2.80806E+03	-1.53662E+00
 2.81068E+03	-2.45972E+00
 2.81331E+03	-1.26196E+00
 2.81594E+03	 3.89648E-01
 2.81856E+03	-4.06250E-01
 2.82118E+03	-3.03955E-01
 2.82380E+03	 2.00708E+00
 2.82642E+03	 2.73779E+00
 2.82904E+03	 2.90308E+00
 2.83166E+03	 2.33325E+00
 2.83427E+03	 7.74170E-01
 2.83689E+03	-2.72461E-01
 2.83950E+03	-1.16162E+00
 2.84211E+03	-5.12695E-03
 2.84472E+03	-1.30005E+00
 2.84732E+03	-1.10132E+00
 2.84993E+03	 1.31909E+00
 2.85253E+03	 1.02002E+00
 2.85514E+03	 1.02417E+00
 2.85774E+03	 8.16650E-01
 2.86034E+03	-4.90967E-01
 2.86294E+03	 3.49854E-01
 2.86553E+03	-6.43066E-01
 2.86813E+03	-4.14551E-01
 2.87072E+03	-4.05273E-01
 2.87332E+03	-6.42822E-01
 2.87591E+03	 7.82227E-01
 2.87850E+03	 9.22607E-01
 2.88109E+03	 5.54199E-02
 2.88367E+03	-1.65356E+00
 2.88626E+03	-2.03809E+00
 2.88884E+03	-1.72437E+00
 2.89142E+03	-8.24951E-01
 2.89401E+03	-1.11084E+00
 2.89659E+03	-1.46899E+00
 2.89916E+03	-1.86914E+00
 2.90174E+03	-1.23242E+00
 2.90432E+03	 7.15332E-01
 2.90689E+03	 1.21753E+00
 2.90946E+03	 1.25586E+00
 2.91203E+03	 8.39844E-02
 2.91460E+03	-1.19824E+00
 2.91717E+03	-1.11353E+00
 2.91974E+03	-3.52295E-01
 2.92230E+03	 1.44873E+00
 2.92486E+03	 2.81592E+00
 2.92743E+03	 2.21777E+00
 2.92999E+03	 1.97095E+00
 2.93255E+03	 7.97852E-01
 2.93510E+03	 4.40674E-01
 2.93766E+03	 9.15527E-02
 2.94021E+03	-1.79175E+00
 2.94277E+03	-6.00586E-01
 2.94532E+03	 1.29150E-01
 2.94787E+03	 6.56982E-01
 2.95042E+03	 2.03979E+00
 2.95297E+03	 1.08325E+00
 2.95551E+03	 1.79199E-01
 2.95806E+03	-8.52539E-01
 2.96060E+03	-2.13794E+00
 2.96314E+03	 7.69043E-02
 2.96568E+03	-5.07568E-01
 2.96822E+03	-7.42188E-02
 2.97076E+03	 1.22241E+00
 2.97330E+03	 4.35547E-01
 2.97583E+03	 6.46729E-01
 2.97837E+03	 3.02979E-01
 2.98090E+03	-3.21777E-01
 2.98343E+03	-2.77100E-01
 2.98596E+03	 1.32324E-01
 2.98849E+03	 1.41650E+00
 2.99101E+03	 8.34229E-01
 2.99354E+03	-1.24463E+00
 2.99606E+03	-3.17383E+00
 2.99858E+03	-3.22510E+00
 3.00110E+03	-1.74316E+00
 3.00362E+03	-5.35889E-01
 3.00614E+03	 6.90918E-02
 3.00866E+03	-7.18262E-01
 3.01117E+03	-1.85840E+00
 3.01369E+03	 1.58203E-01
 3.01620E+03	 2.46631E+00
 3.01871E+03	 4.64600E+00
 3.02122E+03	 2.76196E+00
 3.02373E+03	 7.05566E-01
 3.02623E+03	 2.09717E-01
 3.02874E+03	-1.30518E+00
 3.03124E+03	 3.65967E-01
 3.03374E+03	 1.74292E+00
 3.03625E+03	-1.29321E+00
 3.03875E+03	-2.56226E+00
 3.04124E+03	-3.07861E+00
 3.04374E+03	-1.47461E+00
 3.04624E+03	 3.05176E-01
 3.04873E+03	 8.10547E-01
 3.05122E+03	 1.96558E+00
 3.05371E+03	-3.75977E-02
 3.05620E+03	-1.75049E+00
 3.05869E+03	 3.10059E-01
 3.06118E+03	 1.49854E+00
 3.06367E+03	 1.85181E+00
 3.06615E+03	 9.49951E-01
 3.06863E+03	-2.33887E-01
 3.07111E+03	-6.49414E-01
 3.07359E+03	-1.16846E+00
 3.07607E+03	-1.20117E+00
 3.07855E+03	-1.14673E+00
 3.08103E+03	-1.77979E+00
 3.08350E+03	-1.37695E+00
 3.08598E+03	 4.74854E-01
 3.08845E+03	 1.52222E+00
 3.09092E+03	 2.37891E+00
 3.09339E+03	 2.15088E+00
 3.09586E+03	 4.90723E-02
 3.09832E+03	-9.16992E-01
 3.10079E+03	-1.40210E+00
